Wavelength,Spectra,Best_Fitting_Model,Non_parm_Extinction_Curve,Non_param_Adjusted_Continuum
4051.13,0.690315,0.30111,0.0,0.834999
4051.46,0.690952,0.353963,0.0,0.835154
4051.79,0.692726,0.405108,0.0,0.83531
4052.13,0.695808,0.452575,0.0,0.835465
4052.46,0.699664,0.495255,0.0,0.83562
4052.79,0.703652,0.532811,0.0,0.835775
4053.12,0.706492,0.564399,0.0,0.835931
4053.45,0.706374,0.590024,0.0,0.836086
4053.78,0.701857,0.610234,0.0,0.836242
4054.12,0.693902,0.625048,0.0,0.836397
4054.45,0.684385,0.634927,0.0,0.836553
4054.78,0.67483,0.639828,0.0,0.836708
4055.11,0.665825,0.640061,0.0,0.836864
4055.44,0.657804,0.637054,0.0,0.837019
4055.77,0.651169,0.632988,0.0,0.837175
4056.11,0.646274,0.62919,0.0,0.837331
4056.44,0.643378,0.625779,0.0,0.837487
4056.77,0.641804,0.622883,0.0,0.837642
4057.1,0.640349,0.620668,0.0,0.837798
4057.43,0.638189,0.619336,0.0,0.837954
4057.77,0.636012,0.619622,0.0,0.838111
4058.1,0.634871,0.621948,0.0,0.838267
4058.43,0.635246,0.624828,0.0,0.838423
4058.76,0.636632,0.627865,0.0,0.83858
4059.09,0.638417,0.63158,0.0,0.838736
4059.43,0.639794,0.635499,1.37717,0.838893
4059.76,0.639804,0.639042,1.38141,0.839049
4060.09,0.637751,0.641603,1.39077,0.839206
4060.42,0.634512,0.642634,1.40097,0.839363
4060.76,0.631529,0.641754,1.41081,0.83952
4061.09,0.62955,0.63881,1.41833,0.839678
4061.42,0.627598,0.6339,1.42591,0.839835
4061.75,0.624468,0.627349,1.43399,0.839992
4062.08,0.619744,0.619671,1.44268,0.84015
4062.42,0.613898,0.611493,1.45144,0.840308
4062.75,0.607473,0.60341,1.45894,0.840466
4063.08,0.601219,0.595985,1.46605,0.840624
4063.41,0.595993,0.58969,1.47304,0.840782
4063.75,0.592397,0.584853,1.47622,0.840941
4064.08,0.590126,0.581667,1.4794,0.841099
4064.41,0.588683,0.580218,1.48447,0.841258
4064.74,0.588054,0.580493,1.49333,0.841417
4065.08,0.588975,0.582433,1.50227,0.841576
4065.41,0.592182,0.585946,1.50096,0.841735
4065.74,0.597538,0.590918,1.4936,0.841895
4066.07,0.604284,0.59721,1.4863,0.842054
4066.41,0.611658,0.604639,1.47036,0.842214
4066.74,0.618956,0.61295,1.45398,0.842374
4067.07,0.625492,0.621789,1.4392,0.842535
4067.41,0.630942,0.63069,1.42941,0.842695
4067.74,0.635741,0.63912,1.41972,0.842856
4068.07,0.640387,0.646525,1.41176,0.843017
4068.4,0.644537,0.652412,1.40538,0.843178
4068.74,0.647035,0.656427,1.39905,0.84334
4069.07,0.646901,0.658418,1.39923,0.843501
4069.4,0.644633,0.658454,1.40093,0.843663
4069.74,0.641376,0.656802,1.40299,0.843825
4070.07,0.638213,0.65387,1.40808,0.843988
4070.4,0.636049,0.65015,1.4132,0.84415
4070.73,0.635734,0.646158,1.41595,0.844313
4071.07,0.637257,0.642363,1.41517,0.844476
4071.4,0.639496,0.639162,1.41439,0.84464
4071.73,0.641287,0.636847,1.4105,0.844804
4072.07,0.641757,0.635581,1.40532,0.844968
4072.4,0.640205,0.635378,1.40016,0.845132
4072.73,0.636438,0.636094,1.40176,0.845296
4073.07,0.632286,0.63745,1.40336,0.845461
4073.4,0.630073,0.639053,1.40389,0.845626
4073.73,0.631012,0.640454,1.40194,0.845792
4074.07,0.634442,0.641206,1.4,0.845958
4074.4,0.639452,0.640928,1.39524,0.846124
4074.73,0.644148,0.63935,1.38865,0.84629
4075.07,0.645881,0.636349,1.3821,0.846457
4075.4,0.642652,0.631959,1.38566,0.846624
4075.73,0.636101,0.626383,1.39037,0.846791
4076.07,0.629087,0.619983,1.39555,0.846959
4076.4,0.623557,0.61326,1.40254,0.847127
4076.73,0.619423,0.606816,1.40958,0.847295
4077.07,0.616336,0.601308,1.41491,0.847464
4077.4,0.614316,0.597382,1.4185,0.847633
4077.73,0.613748,0.595589,1.42211,0.847802
4078.07,0.614911,0.596316,1.42127,0.847972
4078.4,0.617216,0.599731,1.41936,0.848142
4078.74,0.619684,0.605768,1.4167,0.848312
4079.07,0.622049,0.614118,1.40785,0.848483
4079.4,0.626109,0.624278,1.39909,0.848654
4079.74,0.633974,0.635617,1.3885,0.848826
4080.07,0.645438,0.647437,1.37533,0.848998
4080.4,0.657372,0.659037,1.36234,0.84917
4080.74,0.666643,0.66977,1.35218,0.849343
4081.07,0.671969,0.679098,1.34317,0.849516
4081.41,0.673113,0.686618,1.33434,0.849689
4081.74,0.670572,0.692082,1.32996,0.849863
4082.07,0.667551,0.695417,1.32559,0.850038
4082.41,0.667864,0.696726,1.32041,0.850212
4082.74,0.673052,0.696268,1.31353,0.850388
4083.08,0.681041,0.694436,1.30671,0.850563
4083.41,0.689505,0.691717,1.29881,0.850739
4083.74,0.697069,0.688648,1.29033,0.850916
4084.08,0.703025,0.685769,1.28194,0.851092
4084.41,0.706772,0.683573,1.27932,0.85127
4084.75,0.708143,0.682474,1.2771,0.851448
4085.08,0.707106,0.682772,1.27643,0.851626
4085.42,0.704302,0.684634,1.28055,0.851805
4085.75,0.701706,0.688084,1.2847,0.851984
4086.08,0.70135,0.693019,1.2881,0.852163
4086.42,0.703395,0.699213,1.29087,0.852343
4086.75,0.706366,0.70635,1.29365,0.852524
4087.09,0.708952,0.714051,1.29116,0.852705
4087.42,0.711196,0.721903,1.2878,0.852886
4087.76,0.713654,0.729488,1.28412,0.853068
4088.09,0.716737,0.736406,1.27876,0.853251
4088.42,0.720503,0.742301,1.27343,0.853434
4088.76,0.724935,0.74689,1.26973,0.853617
4089.09,0.729554,0.749978,1.2678,0.853801
4089.43,0.73339,0.751497,1.26586,0.853986
4089.76,0.735649,0.751514,1.26593,0.854171
4090.1,0.737115,0.750221,1.26653,0.854356
4090.43,0.739303,0.747892,1.26658,0.854542
4090.77,0.743078,0.744838,1.26153,0.854729
4091.1,0.747345,0.741354,1.2565,0.854916
4091.44,0.750654,0.737675,1.25423,0.855104
4091.77,0.752039,0.733946,1.25593,0.855292
4092.11,0.751151,0.73022,1.25763,0.85548
4092.44,0.747663,0.726477,1.26866,0.85567
4092.78,0.741078,0.72264,1.28354,0.855859
4093.11,0.73081,0.718596,1.29881,0.85605
4093.45,0.717043,0.714212,1.31826,0.856241
4093.78,0.70279,0.709365,1.33814,0.856432
4094.12,0.691659,0.703962,1.3547,0.856624
4094.45,0.684918,0.697962,1.3643,0.856817
4094.79,0.680306,0.691401,1.374,0.85701
4095.12,0.675406,0.684395,1.38192,0.857204
4095.46,0.669414,0.677123,1.38892,0.857398
4095.79,0.662589,0.669791,1.39598,0.857593
4096.13,0.655515,0.662592,1.40476,0.857788
4096.46,0.650097,0.655664,1.41367,0.857984
4096.8,0.648571,0.649037,1.42138,0.858181
4097.13,0.650368,0.642627,1.42594,0.858377
4097.47,0.649991,0.636249,1.43053,0.858575
4097.8,0.641868,0.629657,1.44333,0.858773
4098.14,0.626772,0.622594,1.46183,0.858971
4098.47,0.610331,0.614852,1.48069,0.85917
4098.81,0.597372,0.606323,1.50402,0.859369
4099.14,0.58797,0.597027,1.52829,0.859569
4099.48,0.580681,0.58712,1.55069,0.859769
4099.81,0.574346,0.576884,1.56539,0.85997
4100.15,0.568373,0.566702,1.58031,0.860171
4100.48,0.562289,0.557023,1.59027,0.860373
4100.82,0.556434,0.54832,1.59608,0.860575
4101.16,0.551862,0.541064,1.60193,0.860777
4101.49,0.549384,0.535687,1.60777,0.86098
4101.83,0.548233,0.532554,1.61363,0.861183
4102.16,0.547058,0.531929,1.61974,0.861386
4102.5,0.545253,0.533945,1.62686,0.86159
4102.83,0.543936,0.538595,1.63402,0.861795
4103.17,0.544484,0.545727,1.63395,0.861999
4103.51,0.548675,0.555054,1.62683,0.862204
4103.84,0.558683,0.566184,1.61975,0.86241
4104.18,0.575958,0.578647,1.58899,0.862615
4104.51,0.596926,0.591932,1.55428,0.862821
4104.85,0.615915,0.605512,1.5219,0.863028
4105.18,0.629196,0.618883,1.4975,0.863234
4105.52,0.63814,0.63158,1.47369,0.863441
4105.86,0.644912,0.643212,1.4575,0.863648
4106.19,0.650856,0.653474,1.44963,0.863856
4106.53,0.656417,0.662164,1.44182,0.864064
4106.86,0.661957,0.669195,1.43473,0.864272
4107.2,0.66753,0.674582,1.42786,0.86448
4107.54,0.673049,0.678422,1.42123,0.864689
4107.87,0.678248,0.680862,1.41622,0.864898
4108.21,0.682352,0.68209,1.41124,0.865107
4108.54,0.684523,0.682319,1.4081,0.865316
4108.88,0.684754,0.681772,1.40737,0.865525
4109.22,0.684041,0.680698,1.40665,0.865735
4109.55,0.68339,0.679376,1.40709,0.865945
4109.89,0.683388,0.678099,1.40792,0.866155
4110.23,0.684405,0.677142,1.40863,0.866366
4110.56,0.686483,0.676741,1.40791,0.866576
4110.9,0.688609,0.677069,1.40719,0.866787
4111.23,0.6896,0.678214,1.40684,0.866998
4111.57,0.689586,0.68018,1.40703,0.867209
4111.91,0.690411,0.682918,1.40723,0.86742
4112.24,0.693732,0.686344,1.40799,0.867631
4112.58,0.698375,0.69036,1.40896,0.867842
4112.92,0.70161,0.694865,1.41003,0.868054
4113.25,0.701729,0.699759,1.41286,0.868266
4113.59,0.700617,0.704928,1.41569,0.868477
4113.93,0.7009,0.71022,1.41593,0.868689
4114.26,0.703927,0.715444,1.41187,0.868901
4114.6,0.709272,0.720361,1.40783,0.869113
4114.94,0.716343,0.724694,1.40039,0.869325
4115.27,0.724172,0.72816,1.39158,0.869537
4115.61,0.731566,0.73051,1.38291,0.86975
4115.95,0.737525,0.731574,1.37602,0.869962
4116.28,0.741743,0.731292,1.36919,0.870174
4116.62,0.744078,0.729726,1.36528,0.870387
4116.96,0.74427,0.727056,1.36658,0.870599
4117.29,0.741898,0.723547,1.36788,0.870812
4117.63,0.736548,0.71951,1.37573,0.871024
4117.97,0.728066,0.715263,1.3867,0.871236
4118.3,0.716452,0.711097,1.39783,0.871449
4118.64,0.702665,0.70725,1.41114,0.871661
4118.98,0.691323,0.703895,1.42464,0.871874
4119.32,0.68784,0.701133,1.43174,0.872086
4119.65,0.692744,0.698996,1.42629,0.872298
4119.99,0.699186,0.69747,1.42088,0.87251
4120.33,0.700299,0.696523,1.42281,0.872723
4120.66,0.695993,0.696123,1.42833,0.872935
4121.0,0.690482,0.696253,1.43384,0.873147
4121.34,0.687362,0.696919,1.42992,0.873359
4121.68,0.687519,0.69813,1.426,0.873571
4122.01,0.691154,0.699879,1.42085,0.873783
4122.35,0.697732,0.702111,1.41323,0.873994
4122.69,0.705578,0.70473,1.40567,0.874206
4123.02,0.712962,0.707604,1.39962,0.874417
4123.36,0.718643,0.710581,1.39432,0.874629
4123.7,0.721697,0.713493,1.38906,0.87484
4124.04,0.721454,0.716176,1.38839,0.875051
4124.37,0.718253,0.718481,1.38773,0.875262
4124.71,0.712696,0.720276,1.38869,0.875472
4125.05,0.705871,0.721458,1.39294,0.875683
4125.39,0.699632,0.721958,1.39721,0.875893
4125.72,0.695802,0.721756,1.40411,0.876104
4126.06,0.695117,0.720876,1.41239,0.876314
4126.4,0.697601,0.719388,1.42075,0.876523
4126.74,0.702655,0.717389,1.4162,0.876733
4127.07,0.707222,0.714992,1.41165,0.876942
4127.41,0.707673,0.712297,1.40925,0.877152
4127.75,0.7031,0.709388,1.41113,0.87736
4128.09,0.696831,0.706309,1.41302,0.877569
4128.43,0.692298,0.703063,1.4195,0.877778
4128.76,0.689949,0.699615,1.42835,0.877986
4129.1,0.688306,0.695913,1.43728,0.878194
4129.44,0.686007,0.691908,1.44794,0.878401
4129.78,0.682276,0.687565,1.45871,0.878609
4130.11,0.676498,0.682869,1.46817,0.878816
4130.45,0.669143,0.677832,1.47489,0.879022
4130.79,0.662339,0.672512,1.48166,0.879229
4131.13,0.658186,0.667029,1.48426,0.879435
4131.47,0.656896,0.66157,1.48487,0.879641
4131.8,0.657496,0.656402,1.48545,0.879846
4132.14,0.659091,0.651866,1.48439,0.880051
4132.48,0.661156,0.648333,1.48334,0.880256
4132.82,0.663255,0.646135,1.4834,0.88046
4133.16,0.664957,0.645517,1.48552,0.880664
4133.5,0.665839,0.64661,1.48764,0.880868
4133.83,0.665625,0.649431,1.48768,0.881071
4134.17,0.665616,0.653888,1.48679,0.881274
4134.51,0.668064,0.65981,1.4857,0.881477
4134.85,0.674202,0.666983,1.47801,0.881679
4135.19,0.681472,0.675144,1.47038,0.88188
4135.53,0.686493,0.683981,1.46472,0.882082
4135.86,0.688034,0.693142,1.46237,0.882283
4136.2,0.687882,0.702275,1.46001,0.882483
4136.54,0.688051,0.71106,1.45576,0.882683
4136.88,0.690506,0.719248,1.45076,0.882882
4137.22,0.697184,0.726681,1.44528,0.883081
4137.56,0.708843,0.733286,1.43058,0.88328
4137.89,0.722188,0.739031,1.4161,0.883478
4138.23,0.733106,0.743869,1.40363,0.883676
4138.57,0.73959,0.747698,1.39406,0.883873
4138.91,0.742427,0.750341,1.38458,0.884069
4139.25,0.74256,0.751552,1.38355,0.884265
4139.59,0.74058,0.751052,1.38557,0.88446
4139.93,0.736884,0.748592,1.38821,0.884654
4140.26,0.732055,0.744007,1.39833,0.884848
4140.6,0.727262,0.737257,1.40856,0.885041
4140.94,0.723743,0.728481,1.41946,0.885233
4141.28,0.721061,0.718002,1.43126,0.885425
4141.62,0.716713,0.706307,1.44321,0.885615
4141.96,0.708491,0.69401,1.45517,0.885805
4142.3,0.697696,0.681797,1.46723,0.885994
4142.64,0.687371,0.670368,1.47929,0.886181
4142.98,0.679767,0.660373,1.49019,0.886368
4143.31,0.674801,0.652365,1.50121,0.886554
4143.65,0.671937,0.646756,1.51171,0.886739
4143.99,0.669686,0.643797,1.52153,0.886923
4144.33,0.665481,0.643554,1.53146,0.887105
4144.67,0.657478,0.645911,1.53739,0.887287
4145.01,0.649643,0.650574,1.54231,0.887467
4145.35,0.64855,0.657097,1.54324,0.887647
4145.69,0.657628,0.664922,1.52075,0.887824
4146.03,0.672063,0.67343,1.49874,0.888001
4146.37,0.685846,0.681997,1.47938,0.888176
4146.71,0.696166,0.690053,1.46261,0.888351
4147.05,0.703492,0.69713,1.44612,0.888523
4147.38,0.708404,0.702897,1.44142,0.888695
4147.72,0.71124,0.707172,1.43895,0.888864
4148.06,0.712248,0.709921,1.43764,0.889033
4148.4,0.71188,0.711238,1.4414,0.8892
4148.74,0.711071,0.711324,1.44517,0.889365
4149.08,0.710764,0.710455,1.44913,0.889529
4149.42,0.710768,0.708936,1.45325,0.889691
4149.76,0.709854,0.707055,1.45739,0.889852
4150.1,0.706937,0.705038,1.46271,0.890011
4150.44,0.701981,0.703028,1.46822,0.890168
4150.78,0.695328,0.701095,1.47412,0.890324
4151.12,0.688368,0.699243,1.48124,0.890478
4151.46,0.684634,0.69744,1.48841,0.89063
4151.8,0.687616,0.695663,1.48737,0.89078
4152.14,0.696037,0.693908,1.48049,0.890929
4152.48,0.704781,0.692174,1.47365,0.891075
4152.82,0.70941,0.690452,1.47329,0.89122
4153.16,0.709307,0.688729,1.47339,0.891363
4153.5,0.705029,0.686996,1.47613,0.891503
4153.84,0.697813,0.685262,1.48553,0.891642
4154.18,0.690097,0.683579,1.49502,0.891779
4154.52,0.684323,0.682056,1.50009,0.891914
4154.86,0.681386,0.68085,1.5026,0.892046
4155.2,0.681106,0.680143,1.50513,0.892177
4155.54,0.68314,0.680114,1.50043,0.892305
4155.88,0.686581,0.680906,1.49568,0.892431
4156.22,0.690378,0.682612,1.49074,0.892555
4156.56,0.693854,0.685257,1.4854,0.892676
4156.9,0.696888,0.6888,1.4801,0.892796
4157.24,0.699436,0.693121,1.47762,0.892913
4157.58,0.701749,0.698042,1.47638,0.893027
4157.92,0.704259,0.70336,1.4751,0.893139
4158.26,0.707457,0.708882,1.47314,0.893249
4158.6,0.712044,0.714451,1.47118,0.893357
4158.94,0.718742,0.719966,1.46191,0.893461
4159.28,0.727472,0.72539,1.44218,0.893564
4159.62,0.737126,0.730709,1.42285,0.893663
4159.96,0.746494,0.735898,1.41298,0.893761
4160.3,0.754089,0.740901,1.40605,0.893855
4160.64,0.758284,0.745635,1.39977,0.893947
4160.98,0.758279,0.749996,1.39795,0.894036
4161.32,0.755626,0.753884,1.39614,0.894123
4161.66,0.752264,0.757231,1.39626,0.894207
4162.0,0.749474,0.759996,1.39852,0.894288
4162.34,0.747824,0.762161,1.40079,0.894366
4162.68,0.747746,0.763711,1.40261,0.894441
4163.02,0.748989,0.764622,1.40433,0.894514
4163.36,0.751019,0.764844,1.40517,0.894583
4163.7,0.753564,0.764312,1.40216,0.89465
4164.05,0.756953,0.762968,1.39916,0.894714
4164.39,0.76154,0.760784,1.39526,0.894774
4164.73,0.766509,0.757787,1.39062,0.894832
4165.07,0.770009,0.754065,1.38599,0.894887
4165.41,0.77034,0.749778,1.38929,0.894938
4165.75,0.766827,0.745154,1.39344,0.894987
4166.09,0.759145,0.740464,1.39959,0.895032
4166.43,0.748109,0.736,1.41139,0.895074
4166.77,0.736669,0.732035,1.42333,0.895112
4167.11,0.727852,0.728794,1.4319,0.895148
4167.45,0.722523,0.726409,1.4384,0.89518
4167.79,0.719981,0.724881,1.44495,0.895209
4168.14,0.719388,0.724057,1.44834,0.895235
4168.48,0.719481,0.723642,1.4517,0.895257
4168.82,0.718898,0.723247,1.45499,0.895275
4169.16,0.71685,0.722442,1.45816,0.895291
4169.5,0.713416,0.720825,1.46133,0.895303
4169.84,0.708766,0.718098,1.46657,0.895311
4170.18,0.703277,0.714099,1.4727,0.895315
4170.52,0.697447,0.708815,1.4793,0.895317
4170.86,0.691661,0.702372,1.49209,0.895314
4171.21,0.685933,0.695021,1.50504,0.895308
4171.55,0.680212,0.687106,1.51633,0.895298
4171.89,0.674779,0.679034,1.52531,0.895285
4172.23,0.670309,0.671245,1.53437,0.895267
4172.57,0.667356,0.664179,1.54001,0.895246
4172.91,0.665386,0.658227,1.54477,0.895222
4173.25,0.663367,0.653677,1.55003,0.895193
4173.6,0.660488,0.650679,1.55785,0.89516
4173.94,0.656501,0.64924,1.56573,0.895124
4174.28,0.651288,0.649236,1.57428,0.895083
4174.62,0.645664,0.650443,1.58347,0.895039
4174.96,0.641324,0.652589,1.59274,0.894991
4175.3,0.6398,0.655402,1.59671,0.894938
4175.64,0.641509,0.658638,1.60001,0.894882
4175.99,0.646472,0.662096,1.60072,0.894821
4176.33,0.654001,0.665635,1.59381,0.894757
4176.67,0.662047,0.669166,1.58695,0.894688
4177.01,0.668552,0.672638,1.57746,0.894615
4177.35,0.673503,0.676027,1.56644,0.894537
4177.7,0.678384,0.679326,1.55554,0.894456
4178.04,0.68415,0.682518,1.54718,0.89437
4178.38,0.689417,0.685573,1.53892,0.89428
4178.72,0.69222,0.688449,1.53158,0.894185
4179.06,0.692308,0.691087,1.52588,0.894086
4179.4,0.691948,0.693418,1.52021,0.893983
4179.75,0.693408,0.695366,1.51345,0.893875
4180.09,0.696998,0.696874,1.5063,0.893763
4180.43,0.701934,0.697922,1.49943,0.893646
4180.77,0.707385,0.698544,1.49483,0.893525
4181.11,0.712391,0.69885,1.49027,0.893399
4181.46,0.715994,0.699027,1.48717,0.893268
4181.8,0.717859,0.699311,1.4858,0.893133
4182.14,0.718347,0.699931,1.48443,0.892994
4182.48,0.717867,0.701055,1.48361,0.89285
4182.83,0.716902,0.702733,1.4829,0.892701
4183.17,0.715963,0.704864,1.48188,0.892549
4183.51,0.715473,0.707206,1.47958,0.892392
4183.85,0.715651,0.709432,1.47728,0.892231
4184.19,0.716651,0.711194,1.47747,0.892067
4184.54,0.717916,0.712197,1.47955,0.891898
4184.88,0.718298,0.712257,1.48163,0.891725
4185.22,0.716751,0.711332,1.497,0.891549
4185.56,0.712796,0.709514,1.51349,0.891369
4185.91,0.706145,0.707013,1.52678,0.891186
4186.25,0.697633,0.704122,1.53254,0.890999
4186.59,0.689953,0.701156,1.53834,0.890809
4186.93,0.685738,0.698414,1.54226,0.890615
4187.28,0.685123,0.696141,1.5453,0.890419
4187.62,0.686701,0.694487,1.54852,0.890219
4187.96,0.688946,0.693511,1.55438,0.890016
4188.3,0.690019,0.693208,1.56029,0.88981
4188.65,0.688083,0.693557,1.56599,0.889602
4188.99,0.683595,0.694547,1.57142,0.88939
4189.33,0.679767,0.696198,1.57688,0.889176
4189.68,0.679532,0.698564,1.57691,0.888959
4190.02,0.682607,0.701689,1.57561,0.88874
4190.36,0.687281,0.705558,1.57297,0.888518
4190.7,0.692367,0.710069,1.56419,0.888294
4191.05,0.697931,0.71502,1.55548,0.888068
4191.39,0.704197,0.720116,1.54518,0.88784
4191.73,0.711017,0.725007,1.53366,0.887609
4192.08,0.71792,0.729343,1.52226,0.887377
4192.42,0.724382,0.732813,1.51463,0.887142
4192.76,0.729664,0.73518,1.50732,0.886906
4193.1,0.732966,0.736297,1.50307,0.886668
4193.45,0.733714,0.736101,1.50562,0.886429
4193.79,0.731708,0.734586,1.50818,0.886187
4194.13,0.726862,0.731766,1.51731,0.885945
4194.48,0.719907,0.727669,1.52961,0.885701
4194.82,0.712082,0.722337,1.54213,0.885455
4195.16,0.704634,0.71584,1.55596,0.885209
4195.51,0.698802,0.70831,1.56997,0.884961
4195.85,0.695759,0.699972,1.57725,0.884712
4196.19,0.694561,0.691158,1.5757,0.884463
4196.54,0.69178,0.682263,1.57415,0.884212
4196.88,0.684567,0.673703,1.58424,0.883961
4197.22,0.675142,0.665857,1.59707,0.883709
4197.57,0.667882,0.659011,1.60789,0.883456
4197.91,0.66507,0.653322,1.60988,0.883203
4198.25,0.664233,0.648827,1.61187,0.882949
4198.6,0.662355,0.645465,1.61699,0.882695
4198.94,0.658247,0.643112,1.62445,0.882441
4199.28,0.652215,0.641614,1.63197,0.882187
4199.63,0.644861,0.640832,1.64374,0.881932
4199.97,0.637923,0.64065,1.65583,0.881678
4200.32,0.633449,0.640983,1.66614,0.881423
4200.66,0.632567,0.641786,1.67275,0.881169
4201.0,0.634997,0.643051,1.6794,0.880915
4201.35,0.640297,0.644796,1.67558,0.880661
4201.69,0.647671,0.647051,1.66768,0.880408
4202.03,0.656122,0.64984,1.65894,0.880155
4202.38,0.664726,0.653178,1.64225,0.879903
4202.72,0.672788,0.657049,1.62582,0.879651
4203.07,0.679663,0.661415,1.61556,0.879401
4203.41,0.684958,0.666218,1.61175,0.879151
4203.75,0.688541,0.671408,1.60795,0.878902
4204.1,0.690416,0.676957,1.60405,0.878654
4204.44,0.69131,0.682851,1.60014,0.878407
4204.79,0.692224,0.689077,1.59602,0.878162
4205.13,0.694006,0.695592,1.59123,0.877917
4205.47,0.697212,0.702302,1.58647,0.877674
4205.82,0.702323,0.709044,1.57868,0.877433
4206.16,0.709301,0.715589,1.56921,0.877193
4206.51,0.717738,0.721691,1.55973,0.876955
4206.85,0.727128,0.727122,1.5455,0.876718
4207.19,0.736618,0.731707,1.53146,0.876483
4207.54,0.745272,0.735351,1.51936,0.87625
4207.88,0.752085,0.738047,1.50997,0.876019
4208.23,0.755963,0.739862,1.50067,0.875791
4208.57,0.756015,0.740913,1.50186,0.875564
4208.92,0.752948,0.741356,1.50586,0.87534
4209.26,0.748205,0.74137,1.51062,0.875117
4209.6,0.743044,0.74114,1.51888,0.874898
4209.95,0.738274,0.740833,1.52722,0.87468
