Wavelength,Spectra,Best_Fitting_Model,Non_parm_Extinction_Curve,Non_param_Adjusted_Continuum
4051.13,0.586472,0.280316,0.0,0.933284
4051.46,0.585602,0.299921,0.0,0.932667
4051.79,0.584716,0.319645,0.0,0.932051
4052.13,0.583937,0.339604,0.0,0.931435
4052.46,0.583619,0.359453,0.0,0.930819
4052.79,0.584122,0.378435,0.0,0.930203
4053.12,0.585473,0.395977,0.0,0.929588
4053.45,0.587421,0.412202,0.0,0.928973
4053.78,0.589641,0.427831,0.0,0.928358
4054.12,0.591389,0.443512,0.0,0.927743
4054.45,0.591764,0.459067,0.0,0.927129
4054.78,0.590313,0.473318,0.0,0.926516
4055.11,0.587765,0.485007,0.0,0.925902
4055.44,0.585021,0.493993,0.0,0.92529
4055.77,0.582342,0.50137,0.0,0.924678
4056.11,0.579216,0.508546,0.0,0.924066
4056.44,0.575185,0.516364,0.0,0.923456
4056.77,0.570748,0.524542,0.0,0.922846
4057.1,0.566944,0.531728,0.0,0.922237
4057.43,0.564555,0.536586,0.0,0.921629
4057.77,0.563318,0.539031,0.0,0.921021
4058.1,0.562718,0.540128,0.0,0.920415
4058.43,0.562226,0.541141,0.0,0.919809
4058.76,0.561295,0.543097,0.0,0.919205
4059.09,0.559409,0.546541,0.0,0.918601
4059.43,0.556609,0.550193,8.94913,0.917999
4059.76,0.553378,0.550347,8.98582,0.917398
4060.09,0.550196,0.548879,9.02287,0.916798
4060.42,0.547437,0.546995,9.06017,0.9162
4060.76,0.545435,0.545219,9.09198,0.915602
4061.09,0.544549,0.544022,9.095,0.915006
4061.42,0.545201,0.54385,9.09802,0.914412
4061.75,0.547771,0.544581,9.09079,0.913819
4062.08,0.551231,0.544997,9.07142,0.913227
4062.42,0.552974,0.544182,9.05211,0.912637
4062.75,0.550702,0.542724,9.09947,0.912048
4063.08,0.545547,0.541274,9.16986,0.911461
4063.41,0.540411,0.540028,9.23844,0.910876
4063.75,0.537554,0.539067,9.2467,0.910293
4064.08,0.536901,0.538864,9.25497,0.909711
4064.41,0.537862,0.544979,9.2512,0.909131
4064.74,0.539848,0.544594,9.22358,0.908553
4065.08,0.542274,0.544426,9.19607,0.907977
4065.41,0.544583,0.544517,9.16242,0.907403
4065.74,0.546608,0.544925,9.12527,0.90683
4066.07,0.548457,0.545694,9.08835,0.90626
4066.41,0.550224,0.54681,9.05897,0.905692
4066.74,0.55189,0.54819,9.03035,0.905126
4067.07,0.553403,0.549707,9.00526,0.904562
4067.41,0.554704,0.551238,8.99246,0.904001
4067.74,0.555723,0.552677,8.97968,0.903442
4068.07,0.556397,0.553956,8.97233,0.902885
4068.4,0.556863,0.555061,8.97011,0.90233
4068.74,0.557456,0.556034,8.96789,0.901778
4069.07,0.558434,0.556934,8.96091,0.901229
4069.4,0.559474,0.557808,8.95283,0.900681
4069.74,0.559999,0.558678,8.94597,0.900137
4070.07,0.559711,0.55954,8.94933,0.899595
4070.4,0.559134,0.56036,8.95268,0.899056
4070.73,0.558929,0.561084,8.95918,0.898519
4071.07,0.559305,0.561675,8.97033,0.897985
4071.4,0.559889,0.562133,8.9815,0.897454
4071.73,0.56033,0.562485,8.97282,0.896926
4072.07,0.560896,0.562755,8.95574,0.8964
4072.4,0.56222,0.56297,8.93871,0.895878
4072.73,0.564762,0.563139,8.90113,0.895358
4073.07,0.568275,0.563248,8.86379,0.894842
4073.4,0.572332,0.563283,8.83334,0.894329
4073.73,0.576229,0.563257,8.81854,0.893818
4074.07,0.578791,0.563222,8.80378,0.893311
4074.4,0.578862,0.563254,8.82225,0.892808
4074.73,0.576255,0.563429,8.86312,0.892307
4075.07,0.571532,0.563796,8.90427,0.89181
4075.4,0.565435,0.564357,8.97452,0.891316
4075.73,0.559579,0.565075,9.04886,0.890825
4076.07,0.55587,0.565889,9.10999,0.890338
4076.4,0.555302,0.566771,9.11519,0.889854
4076.73,0.556829,0.567754,9.1204,0.889374
4077.07,0.559164,0.568918,9.1147,0.888898
4077.4,0.561686,0.570345,9.09823,0.888425
4077.73,0.564443,0.572117,9.08181,0.887956
4078.07,0.567485,0.574264,9.03468,0.88749
4078.4,0.570669,0.57674,8.98052,0.887028
4078.74,0.57377,0.579456,8.92992,0.88657
4079.07,0.576666,0.58234,8.90521,0.886116
4079.4,0.579552,0.585347,8.88061,0.885666
4079.74,0.582673,0.588465,8.85923,0.88522
4080.07,0.58619,0.591715,8.84242,0.884778
4080.4,0.590154,0.595118,8.82566,0.88434
4080.74,0.594578,0.598666,8.79763,0.883906
4081.07,0.599198,0.602307,8.76524,0.883476
4081.41,0.603589,0.605972,8.73262,0.88305
4081.74,0.607411,0.609591,8.67973,0.882629
4082.07,0.610661,0.613112,8.62733,0.882211
4082.41,0.613418,0.616517,8.5726,0.881799
4082.74,0.615981,0.619805,8.51262,0.88139
4083.08,0.619003,0.622973,8.45328,0.880986
4083.41,0.623095,0.626024,8.40215,0.880586
4083.74,0.627864,0.628979,8.35592,0.880191
4084.08,0.632202,0.63184,8.31007,0.879801
4084.41,0.635228,0.634617,8.29336,0.879415
4084.75,0.637238,0.637353,8.27864,0.879033
4085.08,0.638878,0.640089,8.26534,0.878657
4085.42,0.640555,0.642819,8.25629,0.878285
4085.75,0.642199,0.645506,8.24727,0.877918
4086.08,0.643697,0.648122,8.23365,0.877556
4086.42,0.645185,0.650607,8.21633,0.877198
4086.75,0.647022,0.652892,8.19906,0.876846
4087.09,0.649502,0.654944,8.17659,0.876499
4087.42,0.652476,0.65677,8.15335,0.876156
4087.76,0.655628,0.65837,8.13195,0.875819
4088.09,0.658573,0.659732,8.1193,0.875487
4088.42,0.660754,0.660829,8.10668,0.87516
4088.76,0.661608,0.661616,8.10289,0.874838
4089.09,0.661098,0.662049,8.10878,0.874521
4089.43,0.659742,0.6621,8.11468,0.87421
4089.76,0.658106,0.661778,8.12302,0.873904
4090.1,0.656911,0.661123,8.13204,0.873604
4090.43,0.65695,0.660187,8.13863,0.873308
4090.77,0.65835,0.658989,8.12255,0.873019
4091.1,0.659247,0.657514,8.1065,0.872735
4091.44,0.657456,0.655731,8.12026,0.872456
4091.77,0.652831,0.653594,8.1776,0.872183
4092.11,0.647815,0.651065,8.23554,0.871916
4092.44,0.644738,0.648145,8.26383,0.871655
4092.78,0.643204,0.644881,8.28045,0.871399
4093.11,0.641296,0.641336,8.29857,0.871149
4093.45,0.637537,0.637561,8.36037,0.870905
4093.78,0.632117,0.633586,8.42286,0.870667
4094.12,0.625606,0.629411,8.49181,0.870435
4094.45,0.618601,0.625009,8.57265,0.870209
4094.79,0.611738,0.620353,8.65467,0.869989
4095.12,0.605625,0.615451,8.72875,0.869774
4095.46,0.600483,0.610368,8.799,0.869565
4095.79,0.596277,0.605204,8.87011,0.869362
4096.13,0.592938,0.600066,8.9253,0.869165
4096.46,0.590275,0.595036,8.98053,0.868973
4096.8,0.58806,0.590152,9.03728,0.868787
4097.13,0.585916,0.585402,9.0971,0.868606
4097.47,0.583198,0.580764,9.15752,0.86843
4097.8,0.57928,0.576249,9.23429,0.868259
4098.14,0.574218,0.57191,9.32257,0.868094
4098.47,0.568592,0.567839,9.41213,0.867934
4098.81,0.563047,0.564134,9.46404,0.867779
4099.14,0.558501,0.560863,9.51288,0.867628
4099.48,0.555954,0.558045,9.55477,0.867483
4099.81,0.55553,0.555649,9.57288,0.867342
4100.15,0.555585,0.553625,9.59105,0.867206
4100.48,0.554345,0.551934,9.62367,0.867075
4100.82,0.551678,0.550556,9.66827,0.866948
4101.16,0.548887,0.549487,9.71318,0.866826
4101.49,0.547169,0.548739,9.72817,0.866708
4101.83,0.546785,0.548331,9.73863,0.866594
4102.16,0.547652,0.548263,9.74467,0.866485
4102.5,0.549417,0.548539,9.73145,0.86638
4102.83,0.551102,0.54917,9.71825,0.866279
4103.17,0.551687,0.550173,9.71205,0.866182
4103.51,0.551074,0.551547,9.71266,0.866089
4103.84,0.550084,0.553278,9.71327,0.866
4104.18,0.549546,0.555337,9.70719,0.865915
4104.51,0.550106,0.557666,9.6997,0.865833
4104.85,0.552329,0.560187,9.6822,0.865755
4105.18,0.556471,0.562826,9.60611,0.865681
4105.52,0.561968,0.565538,9.5309,0.86561
4105.86,0.568121,0.568293,9.46079,0.865543
4106.19,0.574122,0.571068,9.39626,0.865479
4106.53,0.579041,0.573845,9.33238,0.865418
4106.86,0.582101,0.576609,9.28936,0.86536
4107.2,0.583772,0.579318,9.25209,0.865306
4107.54,0.585102,0.581905,9.21445,0.865255
4107.87,0.586817,0.584314,9.17212,0.865206
4108.21,0.588699,0.586521,9.13007,0.865161
4108.54,0.590363,0.588518,9.09723,0.865118
4108.88,0.591616,0.590314,9.07633,0.865079
4109.22,0.592492,0.591958,9.0555,0.865042
4109.55,0.59307,0.593522,9.04841,0.865007
4109.89,0.59369,0.595056,9.0458,0.864975
4110.23,0.594825,0.596583,9.04262,0.864946
4110.56,0.596743,0.598106,9.03248,0.864918
4110.9,0.599051,0.599596,9.02236,0.864894
4111.23,0.601228,0.600996,9.00825,0.864871
4111.57,0.60298,0.602251,8.98823,0.864851
4111.91,0.604298,0.603342,8.96827,0.864832
4112.24,0.605257,0.60428,8.94685,0.864816
4112.58,0.606505,0.605098,8.92492,0.864802
4112.92,0.609005,0.605846,8.90271,0.864789
4113.25,0.613058,0.606575,8.8737,0.864778
4113.59,0.616664,0.607323,8.84483,0.864769
4113.93,0.617373,0.608084,8.83999,0.864762
4114.26,0.614819,0.608833,8.87496,0.864756
4114.6,0.611519,0.609546,8.91014,0.864752
4114.94,0.610011,0.610203,8.91077,0.864749
4115.27,0.610877,0.610787,8.89676,0.864748
4115.61,0.613551,0.611298,8.88225,0.864747
4115.95,0.617304,0.611744,8.85089,0.864748
4116.28,0.62086,0.612115,8.8197,0.86475
4116.62,0.622832,0.612389,8.80004,0.864753
4116.96,0.622701,0.612546,8.80094,0.864757
4117.29,0.621206,0.612583,8.80183,0.864762
4117.63,0.619153,0.612509,8.81959,0.864768
4117.97,0.616981,0.612357,8.84519,0.864775
4118.3,0.614903,0.612166,8.87093,0.864782
4118.64,0.613132,0.611964,8.89869,0.864789
4118.98,0.611884,0.611742,8.92659,0.864798
4119.32,0.611369,0.611481,8.94964,0.864806
4119.65,0.61141,0.611166,8.96322,0.864816
4119.99,0.611244,0.610796,8.97683,0.864825
4120.33,0.610165,0.610391,8.98287,0.864834
4120.66,0.608704,0.609988,8.98522,0.864844
4121.0,0.608174,0.609625,8.9875,0.864854
4121.34,0.609461,0.609318,8.97081,0.864864
4121.68,0.611707,0.609059,8.95417,0.864874
4122.01,0.613626,0.608819,8.94791,0.864883
4122.35,0.614333,0.608556,8.96226,0.864892
4122.69,0.613564,0.608239,8.97664,0.864901
4123.02,0.611184,0.607856,9.0032,0.86491
4123.36,0.607958,0.607401,9.036,0.864918
4123.7,0.60523,0.606872,9.06897,0.864926
4124.04,0.604109,0.60627,9.07355,0.864933
4124.37,0.604716,0.605598,9.07808,0.864939
4124.71,0.606909,0.604841,9.0719,0.864945
4125.05,0.60997,0.603982,9.04413,0.86495
4125.39,0.612276,0.603008,9.0165,0.864954
4125.72,0.612242,0.601914,9.03971,0.864957
4126.06,0.609694,0.600695,9.08891,0.864959
4126.4,0.60537,0.599354,9.13851,0.864959
4126.74,0.600161,0.597898,9.20433,0.864959
4127.07,0.595504,0.596322,9.27089,0.864957
4127.41,0.592954,0.594597,9.31844,0.864954
4127.75,0.592854,0.592683,9.32666,0.864949
4128.09,0.593666,0.590552,9.3349,0.864943
4128.43,0.59378,0.58821,9.35705,0.864936
4128.76,0.592628,0.585717,9.38623,0.864927
4129.1,0.590315,0.583181,9.41557,0.864916
4129.44,0.587071,0.580729,9.45076,0.864903
4129.78,0.583567,0.578451,9.48614,0.864888
4130.11,0.580578,0.576381,9.51667,0.864872
4130.45,0.578482,0.574501,9.53746,0.864853
4130.79,0.577043,0.572763,9.55832,0.864832
4131.13,0.575986,0.571132,9.57588,0.864809
4131.47,0.575151,0.56963,9.59187,0.864784
4131.8,0.574449,0.568326,9.6078,0.864757
4132.14,0.573838,0.567288,9.61597,0.864727
4132.48,0.57345,0.566553,9.62414,0.864694
4132.82,0.573455,0.566124,9.62313,0.864659
4133.16,0.573886,0.565963,9.60522,0.864622
4133.5,0.574568,0.566011,9.58735,0.864582
4133.83,0.575319,0.566238,9.57386,0.864539
4134.17,0.576018,0.566642,9.56234,0.864493
4134.51,0.57659,0.567243,9.55145,0.864444
4134.85,0.576966,0.568065,9.56067,0.864392
4135.19,0.577123,0.569114,9.5699,0.864337
4135.53,0.577049,0.570356,9.58149,0.864279
4135.86,0.576859,0.571721,9.5971,0.864218
4136.2,0.57685,0.573116,9.61275,0.864154
4136.54,0.57731,0.57444,9.60916,0.864086
4136.88,0.578318,0.575608,9.59771,0.864014
4137.22,0.579833,0.576584,9.58514,0.863939
4137.56,0.581709,0.577377,9.55133,0.863861
4137.89,0.583449,0.577997,9.51769,0.863779
4138.23,0.584485,0.578442,9.50318,0.863693
4138.57,0.584519,0.578675,9.5181,0.863604
4138.91,0.583615,0.578622,9.53306,0.863512
4139.25,0.581869,0.578191,9.56947,0.863416
4139.59,0.579442,0.577328,9.61392,0.863317
4139.93,0.576534,0.576057,9.65902,0.863216
4140.26,0.573357,0.574469,9.70863,0.863111
4140.6,0.57017,0.572682,9.75863,0.863003
4140.94,0.567238,0.570803,9.80269,0.862892
4141.28,0.564722,0.568892,9.83827,0.862779
4141.62,0.562654,0.56695,9.87404,0.862663
4141.96,0.561051,0.564943,9.9102,0.862545
4142.3,0.559847,0.562845,9.94662,0.862424
4142.64,0.558935,0.560676,9.98345,0.8623
4142.98,0.558184,0.558494,10.0223,0.862175
4143.31,0.557391,0.556362,10.0613,0.862047
4143.65,0.556343,0.55433,10.0919,0.861917
4143.99,0.554944,0.552427,10.1121,0.861786
4144.33,0.553229,0.550667,10.1324,0.861652
4144.67,0.551278,0.549054,10.1233,0.861516
4145.01,0.549443,0.547629,10.1068,0.861379
4145.35,0.548203,0.546464,10.0951,0.86124
4145.69,0.547776,0.545623,10.1109,0.8611
4146.03,0.547704,0.545117,10.1267,0.860958
4146.37,0.547433,0.544911,10.1573,0.860814
4146.71,0.546769,0.544938,10.2034,0.86067
4147.05,0.545884,0.545116,10.2498,0.860524
4147.38,0.544958,0.545367,10.2484,0.860377
4147.72,0.544111,0.545653,10.2378,0.860229
4148.06,0.543436,0.545974,10.2277,0.860081
4148.4,0.542979,0.546336,10.2193,0.859931
4148.74,0.542676,0.546715,10.2109,0.859781
4149.08,0.542445,0.547072,10.211,0.85963
4149.42,0.542203,0.547372,10.2185,0.859478
4149.76,0.54186,0.547581,10.226,0.859326
4150.1,0.541337,0.54767,10.2432,0.859174
4150.44,0.540614,0.547645,10.2616,0.859021
4150.78,0.539692,0.547553,10.2806,0.858868
4151.12,0.538612,0.547447,10.3011,0.858715
4151.46,0.537501,0.547373,10.3217,0.858562
4151.8,0.536517,0.547371,10.3343,0.858409
4152.14,0.536163,0.547467,10.3412,0.858256
4152.48,0.537222,0.547659,10.3482,0.858103
4152.82,0.540089,0.547927,10.3138,0.857951
4153.16,0.54323,0.548258,10.2768,0.857799
4153.5,0.544536,0.548643,10.2574,0.857648
4153.84,0.54329,0.54908,10.2814,0.857497
4154.18,0.541216,0.549577,10.3056,0.857347
4154.52,0.540179,0.550157,10.314,0.857198
4154.86,0.540607,0.550855,10.3133,0.857049
4155.2,0.54192,0.551717,10.3127,0.856902
4155.54,0.543582,0.552779,10.2985,0.856756
4155.88,0.545316,0.554076,10.2842,0.85661
4156.22,0.546915,0.55561,10.2635,0.856466
4156.56,0.54848,0.557354,10.2306,0.856324
4156.9,0.550582,0.559267,10.1979,0.856182
4157.24,0.553743,0.561326,10.1463,0.856043
4157.58,0.557591,0.563518,10.0868,0.855904
4157.92,0.561222,0.565844,10.0292,0.855768
4158.26,0.563916,0.568324,9.99872,0.855633
4158.6,0.565621,0.570947,9.96837,0.8555
4158.94,0.566433,0.573667,9.95421,0.85537
4159.28,0.566676,0.57642,9.96369,0.855241
4159.62,0.566961,0.579147,9.97317,0.855114
4159.96,0.567853,0.581782,9.97384,0.854989
4160.3,0.569365,0.584273,9.97173,0.854867
4160.64,0.571231,0.586582,9.96753,0.854747
4160.98,0.573292,0.588676,9.9475,0.85463
4161.32,0.575689,0.590519,9.92753,0.854515
4161.66,0.578603,0.592082,9.89621,0.854403
4162.0,0.581869,0.593366,9.85241,0.854294
4162.34,0.584952,0.594395,9.80889,0.854188
4162.68,0.587324,0.595199,9.77556,0.854084
4163.02,0.588654,0.595789,9.74441,0.853984
4163.36,0.588689,0.596158,9.72093,0.853886
4163.7,0.587492,0.596284,9.73015,0.853792
4164.05,0.58585,0.596135,9.73938,0.853701
4164.39,0.58461,0.595703,9.74836,0.853614
4164.73,0.58385,0.595013,9.75713,0.85353
4165.07,0.582962,0.594104,9.76592,0.853449
4165.41,0.581462,0.593001,9.79918,0.853373
4165.75,0.579666,0.591703,9.83523,0.853299
4166.09,0.578148,0.590191,9.86917,0.85323
4166.43,0.577182,0.588449,9.8968,0.853165
4166.77,0.57647,0.586488,9.92455,0.853104
4167.11,0.575667,0.58435,9.95,0.853047
4167.45,0.57467,0.582095,9.97408,0.852994
4167.79,0.573543,0.579793,9.99825,0.852945
4168.14,0.572226,0.577482,10.035,0.852901
4168.48,0.570106,0.575161,10.0721,0.852861
4168.82,0.566444,0.572813,10.1065,0.852826
4169.16,0.56168,0.570434,10.1354,0.852795
4169.5,0.558026,0.568044,10.1644,0.852769
4169.84,0.557818,0.565678,10.1167,0.852748
4170.18,0.563155,0.563376,10.0379,0.852732
4170.52,0.576003,0.561168,9.94508,0.852721
4170.86,0.595559,0.559052,9.65709,0.852715
4171.21,0.612014,0.557001,9.38141,0.852714
4171.55,0.614014,0.554982,9.3481,0.852718
4171.89,0.599857,0.552972,9.63138,0.852728
4172.23,0.579393,0.550983,9.92776,0.852743
4172.57,0.562173,0.54906,10.1433,0.852764
4172.91,0.550295,0.54726,10.3409,0.85279
4173.25,0.542468,0.545632,10.5261,0.852822
4173.6,0.537566,0.5442,10.6178,0.85286
4173.94,0.53492,0.54297,10.7108,0.852904
4174.28,0.53394,0.541933,10.7589,0.852954
4174.62,0.534174,0.54108,10.7653,0.85301
4174.96,0.535301,0.540431,10.7718,0.853072
4175.3,0.536977,0.540039,10.7493,0.85314
4175.64,0.5387,0.539941,10.7233,0.853215
4175.99,0.539919,0.54013,10.7026,0.853296
4176.33,0.540289,0.540557,10.6976,0.853384
4176.67,0.539879,0.541142,10.6925,0.853478
4177.01,0.538828,0.541776,10.7107,0.853579
4177.35,0.537671,0.542379,10.7433,0.853687
4177.7,0.537228,0.54296,10.7761,0.853801
4178.04,0.538095,0.543588,10.7615,0.853923
4178.38,0.539898,0.544347,10.7462,0.854052
4178.72,0.542016,0.545307,10.7286,0.854187
4179.06,0.544051,0.546495,10.7066,0.854331
4179.4,0.545938,0.547861,10.6848,0.854481
4179.75,0.547633,0.5493,10.6629,0.854639
4180.09,0.549095,0.550711,10.6411,0.854804
4180.43,0.550276,0.552046,10.6189,0.854977
4180.77,0.551238,0.553308,10.5929,0.855158
4181.11,0.552364,0.554544,10.5671,0.855346
4181.46,0.554093,0.555819,10.5341,0.855543
4181.8,0.556628,0.557183,10.4928,0.855747
4182.14,0.55991,0.558625,10.4518,0.855959
4182.48,0.56379,0.560101,10.4009,0.856179
4182.83,0.56762,0.561552,10.3482,0.856406
4183.17,0.570548,0.562932,10.3009,0.85664
4183.51,0.572184,0.56421,10.2737,0.856882
4183.85,0.573176,0.565373,10.2466,0.857131
4184.19,0.574312,0.566418,10.2102,0.857387
4184.54,0.57626,0.567359,10.1668,0.85765
4184.88,0.579594,0.568232,10.1236,0.85792
4185.22,0.584567,0.569075,10.0597,0.858197
4185.56,0.589921,0.569933,9.99506,0.85848
4185.91,0.593951,0.570857,9.95287,0.85877
4186.25,0.595683,0.571876,9.9592,0.859066
4186.59,0.595347,0.572965,9.96554,0.859369
4186.93,0.593319,0.574078,9.99836,0.859678
4187.28,0.590395,0.575156,10.0437,0.859993
4187.62,0.58763,0.576137,10.0884,0.860313
4187.96,0.585864,0.576981,10.1172,0.86064
4188.3,0.585203,0.577691,10.1461,0.860973
4188.65,0.585588,0.578308,10.1583,0.861311
4188.99,0.586711,0.578881,10.1482,0.861654
4189.33,0.587966,0.579464,10.1381,0.862003
4189.68,0.588805,0.580097,10.1396,0.862357
4190.02,0.589269,0.580791,10.1439,0.862717
4190.36,0.589658,0.581517,10.1449,0.863081
4190.7,0.590144,0.582209,10.131,0.863451
4191.05,0.590595,0.582782,10.1171,0.863825
4191.39,0.59084,0.583141,10.1102,0.864204
4191.73,0.590767,0.583218,10.109,0.864588
4192.08,0.59032,0.582988,10.1078,0.864976
4192.42,0.589461,0.582482,10.1198,0.865369
4192.76,0.588247,0.581768,10.1328,0.865766
4193.1,0.586762,0.58091,10.1517,0.866167
4193.45,0.585025,0.579945,10.184,0.866572
4193.79,0.582945,0.578866,10.2166,0.866982
4194.13,0.580425,0.577626,10.2679,0.867395
4194.48,0.577431,0.576171,10.3282,0.867811
4194.82,0.573967,0.574487,10.3903,0.868232
4195.16,0.570141,0.572611,10.4717,0.868656
4195.51,0.566411,0.570617,10.554,0.869083
4195.85,0.563307,0.56859,10.6146,0.869514
4196.19,0.561312,0.566615,10.6465,0.869948
4196.54,0.560862,0.564735,10.6785,0.870384
4196.88,0.562173,0.562958,10.6716,0.870824
4197.22,0.563953,0.561287,10.656,0.871267
4197.57,0.564266,0.559736,10.6531,0.871712
4197.91,0.562249,0.558333,10.7025,0.87216
4198.25,0.559456,0.557106,10.7523,0.872611
4198.6,0.557705,0.556097,10.7774,0.873064
4198.94,0.557662,0.555347,10.7841,0.873519
4199.28,0.559051,0.554895,10.7908,0.873977
4199.63,0.561476,0.554764,10.7642,0.874436
4199.97,0.564138,0.554977,10.7362,0.874898
4200.32,0.56613,0.555565,10.7102,0.875361
4200.66,0.567136,0.55654,10.6881,0.875826
4201.0,0.567747,0.557911,10.6661,0.876293
4201.35,0.568581,0.559697,10.6515,0.876761
4201.69,0.569784,0.561921,10.6398,0.87723
4202.03,0.571229,0.564572,10.6266,0.877701
4202.38,0.572868,0.567631,10.6,0.878173
4202.72,0.574883,0.571042,10.5735,0.878646
4203.07,0.577497,0.574712,10.5334,0.87912
4203.41,0.580842,0.578536,10.479,0.879595
4203.75,0.584962,0.582438,10.425,0.880071
4204.1,0.589764,0.586376,10.3647,0.880547
4204.44,0.594396,0.590343,10.3038,0.881024
4204.79,0.597723,0.594365,10.2518,0.881501
4205.13,0.599224,0.598461,10.2252,0.881979
4205.47,0.599572,0.602602,10.1986,0.882456
4205.82,0.599584,0.606717,10.173,0.882934
4206.16,0.600189,0.610722,10.1481,0.883412
4206.51,0.602389,0.614525,10.1228,0.883889
4206.85,0.606791,0.618066,10.0719,0.884366
4207.19,0.612489,0.621322,10.0215,0.884843
4207.54,0.618219,0.624298,9.9861,0.885319
4207.88,0.622912,0.626996,9.97258,0.885795
4208.23,0.625745,0.629406,9.95909,0.88627
4208.57,0.62609,0.631495,9.95527,0.886744
4208.92,0.62472,0.633231,9.95403,0.887218
4209.26,0.623047,0.634613,9.9505,0.88769
4209.6,0.622064,0.635689,9.93617,0.888161
4209.95,0.621739,0.636535,9.92188,0.888631
