Wavelength,Spectra,Best_Fitting_Model,Non_parm_Extinction_Curve,Non_param_Adjusted_Continuum
4050.37,0.673242,0.30256,0.0,0.890088
4050.74,0.687912,0.355172,0.0,0.890584
4051.1,0.695119,0.410958,0.0,0.891081
4051.47,0.693685,0.465358,0.0,0.891577
4051.84,0.686933,0.512077,0.0,0.892074
4052.21,0.678578,0.547279,0.0,0.89257
4052.58,0.671158,0.571909,0.0,0.893065
4052.95,0.666229,0.590107,0.0,0.89356
4053.31,0.664897,0.605636,0.0,0.894055
4053.68,0.665662,0.619756,0.0,0.89455
4054.05,0.666022,0.631153,0.0,0.895043
4054.42,0.66421,0.63779,0.0,0.895536
4054.79,0.660397,0.639372,0.0,0.896029
4055.16,0.655074,0.637631,0.0,0.89652
4055.53,0.648913,0.634582,0.0,0.897011
4055.89,0.642795,0.631474,0.0,0.897501
4056.26,0.637575,0.628882,0.0,0.89799
4056.63,0.633689,0.627041,0.0,0.898477
4057.0,0.631341,0.626038,0.0,0.898964
4057.37,0.630601,0.625879,0.0,0.89945
4057.74,0.631026,0.626494,0.0,0.899934
4058.11,0.632046,0.62774,0.0,0.900417
4058.48,0.633164,0.62938,0.0,0.900899
4058.85,0.634014,0.631102,0.0,0.901379
4059.21,0.634249,0.632548,0.0,0.901858
4059.58,0.633666,0.633368,6.69205,0.902335
4059.95,0.632178,0.633272,6.70502,0.90281
4060.32,0.629742,0.632047,6.72915,0.903284
4060.69,0.626556,0.629574,6.75506,0.903757
4061.06,0.622909,0.625831,6.7841,0.904227
4061.43,0.618931,0.620907,6.82879,0.904695
4061.8,0.614372,0.615015,6.87394,0.905162
4062.17,0.60895,0.608494,6.92594,0.905626
4062.54,0.603202,0.601788,6.98636,0.906089
4062.91,0.598595,0.595433,7.04758,0.906549
4063.28,0.596411,0.590142,7.09071,0.907007
4063.65,0.595875,0.587181,7.12777,0.907463
4064.01,0.595145,0.588931,7.16517,0.907917
4064.38,0.592857,0.587754,7.204,0.908368
4064.75,0.589382,0.588238,7.24316,0.908817
4065.12,0.585489,0.590302,7.27404,0.909263
4065.49,0.582515,0.593781,7.28783,0.909706
4065.86,0.582677,0.598431,7.30166,0.910147
4066.23,0.588035,0.603953,7.26308,0.910586
4066.6,0.597416,0.610013,7.19408,0.911021
4066.97,0.607337,0.616257,7.12605,0.911454
4067.34,0.614875,0.622328,7.07013,0.911883
4067.71,0.620235,0.627888,7.01579,0.91231
4068.08,0.624608,0.632645,6.96767,0.912734
4068.45,0.628792,0.636379,6.94008,0.913154
4068.82,0.632754,0.638962,6.91265,0.913572
4069.19,0.636356,0.640367,6.88741,0.913986
4069.56,0.63949,0.640667,6.86423,0.914397
4069.93,0.642075,0.640018,6.84115,0.914804
4070.3,0.644002,0.638659,6.83308,0.915208
4070.67,0.64494,0.636887,6.8285,0.915609
4071.04,0.644463,0.635012,6.82665,0.916006
4071.41,0.642453,0.633306,6.84741,0.916399
4071.78,0.639684,0.631957,6.86825,0.916789
4072.15,0.637083,0.631033,6.8882,0.917175
4072.52,0.635175,0.630472,6.90678,0.917557
4072.89,0.63397,0.630103,6.92543,0.917935
4073.26,0.633393,0.629683,6.95321,0.91831
4073.63,0.632857,0.62895,6.98497,0.91868
4074.0,0.63147,0.627673,7.01696,0.919046
4074.37,0.628656,0.625696,7.04888,0.919409
4074.74,0.625084,0.62297,7.08102,0.919766
4075.11,0.621729,0.619581,7.11508,0.92012
4075.48,0.619207,0.615767,7.15331,0.920469
4075.85,0.617538,0.611893,7.19186,0.920814
4076.22,0.616672,0.608406,7.2112,0.921155
4076.59,0.616425,0.605774,7.21788,0.921491
4076.97,0.616505,0.604422,7.22457,0.921822
4077.34,0.616696,0.604668,7.21462,0.922149
4077.71,0.617194,0.606687,7.20297,0.922471
4078.08,0.618329,0.610517,7.19079,0.922788
4078.45,0.620496,0.616059,7.17649,0.9231
4078.82,0.624234,0.6231,7.16223,0.923408
4079.19,0.630066,0.631324,7.11587,0.92371
4079.56,0.637801,0.640319,7.03979,0.924008
4079.93,0.646554,0.6496,6.96492,0.9243
4080.3,0.655477,0.658658,6.8875,0.924587
4080.67,0.664183,0.667023,6.81054,0.924869
4081.04,0.672481,0.674316,6.73926,0.925145
4081.42,0.680047,0.680283,6.70131,0.925417
4081.79,0.686175,0.684808,6.66367,0.925682
4082.16,0.690112,0.687918,6.63242,0.925943
4082.53,0.691882,0.68977,6.60959,0.926198
4082.9,0.692449,0.690644,6.58687,0.926447
4083.27,0.692779,0.690916,6.58114,0.92669
4083.64,0.693268,0.691006,6.58167,0.926928
4084.01,0.694006,0.691319,6.58189,0.92716
4084.38,0.695228,0.692214,6.57393,0.927385
4084.76,0.697697,0.693971,6.56598,0.927606
4085.13,0.702275,0.696765,6.54982,0.92782
4085.5,0.708505,0.700651,6.518,0.928027
4085.87,0.713936,0.705565,6.48642,0.928229
4086.24,0.716236,0.711328,6.47272,0.928425
4086.61,0.716613,0.717665,6.46858,0.928614
4086.98,0.718668,0.724243,6.46445,0.928797
4087.36,0.725017,0.730704,6.42242,0.928974
4087.73,0.733606,0.736702,6.37916,0.929144
4088.1,0.74107,0.741937,6.34312,0.929307
4088.47,0.74552,0.746191,6.32595,0.929464
4088.84,0.747814,0.749325,6.30885,0.929615
4089.21,0.749071,0.751286,6.30084,0.929758
4089.59,0.749805,0.752093,6.29948,0.929895
4089.96,0.75003,0.751823,6.29812,0.930025
4090.33,0.749698,0.750579,6.30866,0.930148
4090.7,0.748494,0.748489,6.32077,0.930264
4091.07,0.746004,0.745696,6.33838,0.930373
4091.45,0.741907,0.742349,6.37853,0.930475
4091.82,0.736091,0.738587,6.41907,0.93057
4092.19,0.728524,0.734503,6.46625,0.930657
4092.56,0.720399,0.730122,6.52008,0.930737
4092.93,0.714104,0.725414,6.57458,0.93081
4093.31,0.711547,0.720326,6.59261,0.930875
4093.68,0.710925,0.714822,6.60258,0.930933
4094.05,0.708869,0.708907,6.61688,0.930984
4094.42,0.703189,0.702628,6.65958,0.931027
4094.79,0.694912,0.696036,6.70269,0.931063
4095.17,0.685587,0.689166,6.75734,0.931091
4095.54,0.676368,0.68203,6.82665,0.931113
4095.91,0.667957,0.674625,6.89705,0.931127
4096.28,0.660896,0.666954,6.96095,0.931135
4096.66,0.654615,0.659047,7.02332,0.931135
4097.03,0.647983,0.650939,7.0865,0.931129
4097.4,0.640245,0.642648,7.15,0.931116
4097.77,0.631876,0.634158,7.21437,0.931097
4098.15,0.623585,0.625444,7.28398,0.931071
4098.52,0.615714,0.616507,7.36154,0.931038
4098.89,0.608121,0.607423,7.44035,0.930999
4099.26,0.600653,0.598364,7.52159,0.930954
4099.64,0.593439,0.589589,7.60465,0.930902
4100.01,0.586763,0.581425,7.68856,0.930845
4100.38,0.580911,0.574244,7.75005,0.930781
4100.75,0.576148,0.568428,7.81229,0.930711
4101.13,0.572732,0.564328,7.86209,0.930635
4101.5,0.570794,0.562215,7.88662,0.930553
4101.87,0.570271,0.562249,7.91127,0.930466
4102.25,0.571102,0.564468,7.90132,0.930373
4102.62,0.573452,0.568808,7.87347,0.930274
4102.99,0.57764,0.575117,7.84577,0.93017
4103.36,0.583865,0.583162,7.77072,0.93006
4103.74,0.591819,0.59262,7.69563,0.929945
4104.11,0.601053,0.603089,7.61673,0.929824
4104.48,0.611074,0.614115,7.52763,0.929698
4104.86,0.621308,0.625234,7.44008,0.929567
4105.23,0.631189,0.636009,7.35204,0.929431
4105.6,0.640345,0.646063,7.26431,0.92929
4105.98,0.648549,0.655111,7.17814,0.929144
4106.35,0.655631,0.662967,7.12534,0.928994
4106.72,0.661682,0.669533,7.07526,0.928838
4107.1,0.66687,0.674782,7.03207,0.928678
4107.47,0.671378,0.678737,7.00747,0.928513
4107.84,0.675407,0.681465,6.983,0.928344
4108.22,0.679141,0.683092,6.95871,0.92817
4108.59,0.682447,0.683812,6.93459,0.927992
4108.96,0.684929,0.683878,6.9106,0.927809
4109.34,0.686249,0.683582,6.89923,0.927622
4109.71,0.686402,0.683212,6.88924,0.927431
4110.08,0.685497,0.683015,6.88872,0.927236
4110.46,0.683755,0.683175,6.92084,0.927037
4110.83,0.681627,0.683823,6.9532,0.926835
4111.21,0.679611,0.685042,6.97283,0.926628
4111.58,0.678436,0.686856,6.98187,0.926417
4111.95,0.679042,0.689233,6.99094,0.926203
4112.33,0.682114,0.692093,6.96171,0.925986
4112.7,0.686799,0.695323,6.92716,0.925764
4113.07,0.691685,0.698784,6.89518,0.92554
4113.45,0.695836,0.702323,6.87273,0.925312
4113.82,0.699383,0.705766,6.85039,0.92508
4114.2,0.702592,0.70892,6.83395,0.924846
4114.57,0.705519,0.711593,6.82281,0.924608
4114.94,0.708019,0.713618,6.8117,0.924367
4115.32,0.710015,0.714876,6.79053,0.924124
4115.69,0.711916,0.715307,6.76771,0.923877
4116.07,0.714313,0.714902,6.74492,0.923628
4116.44,0.717276,0.713701,6.72188,0.923375
4116.81,0.719635,0.711789,6.69895,0.923121
4117.19,0.720072,0.709302,6.70915,0.922863
4117.56,0.71805,0.706408,6.75199,0.922603
4117.94,0.713801,0.703295,6.79525,0.922341
4118.31,0.70772,0.70016,6.84805,0.922076
4118.69,0.701079,0.697192,6.90333,0.921809
4119.06,0.695503,0.69455,6.95142,0.92154
4119.44,0.69208,0.692363,6.95934,0.921269
4119.81,0.69055,0.690722,6.96727,0.920996
4120.18,0.69045,0.689676,6.96287,0.920721
4120.56,0.691325,0.68923,6.94579,0.920443
4120.93,0.692728,0.689348,6.92877,0.920164
4121.31,0.694236,0.689964,6.91896,0.919884
4121.68,0.695602,0.690986,6.91071,0.919602
4122.06,0.696651,0.692314,6.90232,0.919318
4122.43,0.697492,0.693852,6.89311,0.919032
4122.81,0.698941,0.69552,6.88392,0.918746
4123.18,0.701866,0.697237,6.87015,0.918458
4123.56,0.705541,0.698907,6.85157,0.918168
4123.93,0.707581,0.700411,6.83307,0.917878
4124.31,0.706044,0.701627,6.85316,0.917586
4124.68,0.702622,0.702449,6.88204,0.917294
4125.06,0.700551,0.702801,6.90537,0.917
4125.43,0.701633,0.702636,6.89636,0.916706
4125.81,0.703963,0.701919,6.88738,0.91641
4126.18,0.705093,0.700631,6.89102,0.916115
4126.56,0.703723,0.698781,6.90816,0.915818
4126.93,0.699753,0.696406,6.92537,0.915521
4127.31,0.693343,0.693561,6.97284,0.915223
4127.68,0.686093,0.690289,7.02762,0.914925
4128.06,0.680213,0.686611,7.07973,0.914627
4128.43,0.676979,0.682536,7.11387,0.914329
4128.81,0.675275,0.678081,7.14825,0.91403
4129.18,0.67363,0.673279,7.18038,0.913731
4129.56,0.671068,0.66818,7.21008,0.913432
4129.93,0.667124,0.662849,7.23997,0.913134
4130.31,0.661519,0.657387,7.28283,0.912835
4130.69,0.655086,0.651948,7.32883,0.912537
4131.06,0.649122,0.646753,7.37231,0.912239
4131.44,0.644684,0.642071,7.4007,0.911941
4131.81,0.642224,0.638185,7.42925,0.911644
4132.19,0.642057,0.635357,7.44189,0.911348
4132.56,0.643519,0.633805,7.43841,0.911052
4132.94,0.644963,0.633691,7.43493,0.910756
4133.31,0.644991,0.635108,7.43435,0.910462
4133.69,0.644128,0.638069,7.43434,0.910168
4134.07,0.643676,0.642497,7.42994,0.909876
4134.44,0.644688,0.64823,7.405,0.909584
4134.82,0.647603,0.655031,7.38017,0.909293
4135.19,0.652749,0.662619,7.33666,0.909004
4135.57,0.65988,0.670693,7.27601,0.908716
4135.95,0.668198,0.678949,7.21611,0.908429
4136.32,0.676923,0.68708,7.15028,0.908144
4136.7,0.685522,0.694787,7.08424,0.90786
4137.07,0.693555,0.701777,7.02038,0.907577
4137.45,0.700675,0.707768,6.9626,0.907296
4137.83,0.706748,0.712499,6.90553,0.907017
4138.2,0.711663,0.715736,6.86544,0.90674
4138.58,0.715243,0.717288,6.8397,0.906464
4138.95,0.717249,0.717022,6.8141,0.906189
4139.33,0.717441,0.714875,6.82815,0.905917
4139.71,0.715576,0.710856,6.84776,0.905646
4140.08,0.711414,0.705054,6.87588,0.905377
4140.46,0.70503,0.697651,6.93413,0.905109
4140.84,0.697162,0.688939,6.99314,0.904844
4141.21,0.688601,0.679318,7.07894,0.90458
4141.59,0.679644,0.669275,7.18694,0.904318
4141.97,0.670169,0.659348,7.29743,0.904058
4142.34,0.660244,0.650078,7.36909,0.9038
4142.72,0.651029,0.641965,7.43759,0.903543
4143.1,0.644034,0.635435,7.49791,0.903289
4143.47,0.63977,0.630799,7.5317,0.903036
4143.85,0.636829,0.628221,7.56572,0.902786
4144.23,0.63368,0.627703,7.60043,0.902537
4144.6,0.630301,0.629099,7.63568,0.902291
4144.98,0.627842,0.632138,7.67119,0.902046
4145.36,0.627348,0.63645,7.67082,0.901804
4145.73,0.629223,0.641606,7.66829,0.901563
4146.11,0.633676,0.647158,7.65339,0.901325
4146.49,0.640349,0.652682,7.60842,0.901089
4146.86,0.647899,0.657827,7.56384,0.900854
4147.24,0.654929,0.662339,7.51905,0.900622
4147.62,0.660684,0.66606,7.47432,0.900393
4147.99,0.66485,0.668914,7.42998,0.900165
4148.37,0.667312,0.670895,7.41855,0.89994
4148.75,0.66874,0.672046,7.40767,0.899716
4149.13,0.670005,0.672449,7.40048,0.899496
4149.5,0.671511,0.672219,7.40066,0.899277
4149.88,0.672941,0.671479,7.40084,0.899061
4150.26,0.673914,0.670338,7.39304,0.898847
4150.63,0.674013,0.668883,7.38154,0.898635
4151.01,0.672803,0.667174,7.37088,0.898426
4151.39,0.670069,0.665265,7.38511,0.898219
4151.77,0.666406,0.663216,7.39938,0.898014
4152.14,0.662588,0.661094,7.41756,0.897812
4152.52,0.659227,0.658965,7.44209,0.897612
4152.9,0.656715,0.65689,7.46675,0.897415
4153.28,0.655374,0.654942,7.47813,0.897221
4153.65,0.655047,0.653213,7.48465,0.897028
4154.03,0.655313,0.651815,7.49019,0.896839
4154.41,0.655811,0.650867,7.48506,0.896652
4154.79,0.656372,0.650482,7.47994,0.896467
4155.16,0.656867,0.650745,7.47141,0.896286
4155.54,0.657377,0.651727,7.4585,0.896106
4155.92,0.658227,0.653475,7.44561,0.89593
4156.3,0.659703,0.656009,7.43917,0.895756
4156.68,0.661664,0.659306,7.43446,0.895585
4157.05,0.663776,0.663304,7.43084,0.895416
4157.43,0.66592,0.667907,7.43385,0.89525
4157.81,0.668544,0.672996,7.43686,0.895087
4158.19,0.672184,0.678449,7.41945,0.894927
4158.57,0.677262,0.684138,7.38152,0.89477
4158.94,0.684086,0.689926,7.34388,0.894615
4159.32,0.692616,0.695675,7.29518,0.894463
4159.7,0.700689,0.701245,7.24501,0.894314
4160.08,0.70532,0.706506,7.20591,0.894168
4160.46,0.705537,0.711346,7.20765,0.894025
4160.83,0.704781,0.715681,7.20939,0.893885
4161.21,0.706892,0.719444,7.18612,0.893748
4161.59,0.712465,0.722574,7.1437,0.893614
4161.97,0.719336,0.725013,7.10165,0.893482
4162.35,0.725468,0.726699,7.05454,0.893354
4162.73,0.729919,0.727574,7.00742,0.893229
4163.1,0.732099,0.727597,6.9745,0.893107
4163.48,0.731785,0.726756,6.97773,0.892988
4163.86,0.729414,0.725078,6.98095,0.892872
4164.24,0.725526,0.722644,7.01308,0.892759
4164.62,0.721052,0.719587,7.06231,0.892649
4165.0,0.717198,0.716067,7.11206,0.892543
4165.38,0.714748,0.712253,7.13797,0.892439
4165.75,0.71273,0.708301,7.16384,0.892339
4166.13,0.709741,0.704353,7.18773,0.892242
4166.51,0.705374,0.700537,7.20783,0.892149
4166.89,0.700692,0.696958,7.22801,0.892058
4167.27,0.696757,0.69366,7.27125,0.891971
4167.65,0.693446,0.690603,7.32433,0.891888
4168.03,0.689959,0.687667,7.37726,0.891807
4168.41,0.685749,0.68468,7.42128,0.89173
4168.79,0.681124,0.681463,7.4657,0.891656
4169.16,0.676551,0.677859,7.50572,0.891586
4169.54,0.672224,0.673748,7.53972,0.891519
4169.92,0.668004,0.66906,7.57397,0.891456
4170.3,0.663732,0.663792,7.62244,0.891396
4170.68,0.659239,0.658029,7.67504,0.89134
4171.06,0.654348,0.65195,7.72837,0.891287
4171.44,0.649223,0.645814,7.78318,0.891238
4171.82,0.644878,0.639924,7.83858,0.891192
4172.2,0.642376,0.63458,7.883,0.89115
4172.58,0.641054,0.630047,7.91705,0.891111
4172.96,0.638602,0.62653,7.95131,0.891076
4173.34,0.633264,0.624163,8.00186,0.891045
4173.71,0.626787,0.62301,8.05503,0.891017
4174.09,0.622143,0.62305,8.09914,0.890993
4174.47,0.620959,0.624188,8.11432,0.890973
4174.85,0.622212,0.626261,8.12954,0.890956
4175.23,0.6246,0.62907,8.12706,0.890943
4175.61,0.627152,0.632406,8.1134,0.890934
4175.99,0.629147,0.636078,8.09977,0.890929
4176.37,0.630298,0.639929,8.07196,0.890928
4176.75,0.632155,0.643838,8.04397,0.89093
4177.13,0.636724,0.647709,8.00558,0.890937
4177.51,0.64405,0.651457,7.94756,0.890947
4177.89,0.651223,0.654998,7.89016,0.890961
4178.27,0.65541,0.658255,7.86168,0.890979
4178.65,0.656995,0.661164,7.84484,0.891001
4179.03,0.658206,0.663683,7.82796,0.891027
4179.41,0.660614,0.665798,7.81002,0.891057
4179.79,0.663628,0.667535,7.79214,0.891091
4180.17,0.66625,0.668952,7.77393,0.891129
4180.55,0.667924,0.670137,7.75528,0.891171
4180.93,0.66861,0.671191,7.7367,0.891217
4181.31,0.66839,0.672215,7.72931,0.891267
4181.69,0.667984,0.673283,7.72445,0.891321
4182.07,0.668384,0.67443,7.71971,0.891379
4182.45,0.670001,0.675653,7.71551,0.891441
4182.83,0.671875,0.676911,7.71131,0.891507
4183.21,0.672916,0.678129,7.71725,0.891576
4183.59,0.673248,0.679197,7.7314,0.891649
4183.97,0.674048,0.679979,7.74558,0.891726
4184.35,0.676141,0.680335,7.72697,0.891806
4184.73,0.678424,0.680174,7.70576,0.89189
4185.11,0.679199,0.679471,7.70203,0.891977
4185.49,0.677664,0.678282,7.73994,0.892067
4185.87,0.674559,0.67672,7.77814,0.892161
4186.25,0.670778,0.674943,7.82294,0.892258
4186.63,0.667233,0.673136,7.87133,0.892358
4187.02,0.664849,0.671496,7.91898,0.892462
4187.4,0.66423,0.670219,7.93836,0.892568
4187.78,0.664832,0.669469,7.95782,0.892677
4188.16,0.66587,0.669362,7.96878,0.89279
4188.54,0.666975,0.669961,7.96758,0.892905
4188.92,0.668305,0.671264,7.96638,0.893023
4189.3,0.669991,0.673208,7.96329,0.893144
4189.68,0.671705,0.675684,7.95969,0.893268
4190.06,0.672903,0.678556,7.95436,0.893394
4190.44,0.673548,0.681681,7.94001,0.893523
4190.82,0.674866,0.684921,7.9257,0.893654
4191.2,0.6782,0.68813,7.8913,0.893788
4191.59,0.683393,0.691128,7.83984,0.893924
4191.97,0.688917,0.693692,7.78889,0.894063
4192.35,0.693424,0.695576,7.74415,0.894203
4192.73,0.696775,0.696543,7.70035,0.894347
4193.11,0.699224,0.696403,7.66643,0.894492
4193.49,0.700818,0.695044,7.65627,0.894639
4193.87,0.701242,0.692427,7.64612,0.894789
4194.25,0.700156,0.688583,7.66104,0.89494
4194.63,0.697327,0.683613,7.68875,0.895093
4195.02,0.692595,0.677688,7.71781,0.895249
4195.4,0.686034,0.671055,7.77492,0.895406
4195.78,0.678541,0.664015,7.83268,0.895564
4196.16,0.671181,0.656881,7.8939,0.895725
4196.54,0.664436,0.649934,7.9598,0.895887
4196.92,0.65807,0.643392,8.02654,0.89605
4197.3,0.651849,0.637425,8.08906,0.896216
4197.69,0.645889,0.632165,8.15101,0.896382
4198.07,0.64046,0.627705,8.21261,0.89655
4198.45,0.635634,0.624091,8.26982,0.89672
4198.83,0.631002,0.621329,8.32764,0.89689
4199.21,0.62612,0.619391,8.38035,0.897062
4199.59,0.621183,0.618256,8.42897,0.897235
4199.98,0.61694,0.617928,8.47803,0.897409
4200.36,0.614235,0.618432,8.48083,0.897584
4200.74,0.614289,0.619794,8.48055,0.89776
4201.12,0.618411,0.62202,8.44644,0.897937
4201.5,0.626154,0.625073,8.34137,0.898115
4201.89,0.634241,0.628893,8.23824,0.898293
4202.27,0.639501,0.633419,8.1595,0.898473
4202.65,0.642476,0.63861,8.09138,0.898653
4203.03,0.645899,0.644431,8.02425,0.898833
4203.41,0.651728,0.650839,7.95947,0.899015
4203.8,0.659395,0.65776,7.89547,0.899196
4204.18,0.667853,0.665078,7.82171,0.899378
4204.56,0.676341,0.67263,7.73712,0.899561
4204.94,0.684413,0.680235,7.65389,0.899744
4205.32,0.69172,0.68771,7.59597,0.899927
4205.71,0.698399,0.69489,7.54292,0.90011
4206.09,0.704782,0.701636,7.49488,0.900293
4206.47,0.711063,0.707838,7.46181,0.900477
4206.85,0.717155,0.71341,7.42896,0.90066
4207.24,0.722915,0.718287,7.4039,0.900843
4207.62,0.727916,0.722426,7.38361,0.901027
4208.0,0.731523,0.725803,7.36352,0.90121
4208.38,0.733333,0.728424,7.37085,0.901393
4208.77,0.733896,0.730336,7.3782,0.901575
4209.15,0.733987,0.731621,7.39069,0.901757
4209.53,0.733982,0.73236,7.41128,0.901939
4209.91,0.733732,0.732611,7.43196,0.902121
4210.3,0.733067,0.732392,7.45089,0.902301
4210.68,0.731949,0.731692,7.46938,0.902482
4211.06,0.730406,0.730481,7.49053,0.902661
4211.45,0.728461,0.728727,7.52502,0.90284
4211.83,0.726124,0.726398,7.55976,0.903018
4212.21,0.723398,0.723478,7.59725,0.903195
4212.59,0.720196,0.719992,7.63709,0.903372
4212.98,0.716347,0.716022,7.67725,0.903547
4213.36,0.711771,0.711719,7.70614,0.903722
4213.74,0.706837,0.707312,7.73447,0.903895
4214.13,0.702044,0.703114,7.75964,0.904067
4214.51,0.697838,0.699494,7.77817,0.904238
4214.89,0.694576,0.696821,7.79677,0.904408
4215.28,0.692591,0.695395,7.80258,0.904577
4215.66,0.692022,0.695401,7.80341,0.904744
4216.04,0.692904,0.696904,7.80084,0.904909
4216.43,0.695288,0.699881,7.77102,0.905074
4216.81,0.699264,0.704233,7.74137,0.905236
4217.19,0.704914,0.709782,7.69716,0.905397
4217.58,0.711858,0.71623,7.63886,0.905557
4217.96,0.71926,0.723154,7.58121,0.905714
4218.34,0.726285,0.73005,7.52741,0.90587
4218.73,0.732231,0.736411,7.47456,0.906024
4219.11,0.736448,0.741779,7.4369,0.906176
4219.49,0.738923,0.745762,7.43601,0.906327
4219.88,0.740769,0.748012,7.43513,0.906475
4220.26,0.743023,0.748214,7.43021,0.906621
4220.64,0.744607,0.746092,7.4234,0.906765
4221.03,0.743121,0.741432,7.4232,0.906906
4221.41,0.736976,0.734108,7.50856,0.907046
4221.8,0.727271,0.724096,7.59542,0.907183
4222.18,0.715617,0.71149,7.69797,0.907318
4222.56,0.702777,0.696523,7.81923,0.90745
4222.95,0.688599,0.679589,7.94338,0.90758
4223.33,0.672919,0.66123,8.1087,0.907707
4223.71,0.655816,0.642108,8.28562,0.907831
4224.1,0.63746,0.622964,8.47566,0.907953
4224.48,0.618385,0.604586,8.69412,0.908072
4224.87,0.59982,0.587776,8.92115,0.908189
4225.25,0.582996,0.573313,9.14188,0.908302
4225.63,0.568239,0.561898,9.36245,0.908413
4226.02,0.555267,0.554088,9.58518,0.908521
4226.4,0.544205,0.55025,9.69822,0.908626
4226.79,0.536622,0.550536,9.81328,0.908728
