Wavelength,Spectra,Best_Fitting_Model,Non_parm_Extinction_Curve,Non_param_Adjusted_Continuum
4051.13,0.646132,0.273627,0.0,0.893865
4051.46,0.652423,0.313256,0.0,0.893895
4051.79,0.659784,0.354622,0.0,0.893925
4052.13,0.667341,0.396249,0.0,0.893954
4052.46,0.671743,0.435752,0.0,0.893984
4052.79,0.669625,0.470823,0.0,0.894014
4053.12,0.661632,0.500213,0.0,0.894044
4053.45,0.651755,0.524232,0.0,0.894074
4053.78,0.643551,0.544122,0.0,0.894104
4054.12,0.637262,0.561138,0.0,0.894134
4054.45,0.63186,0.575668,0.0,0.894164
4054.78,0.626572,0.587074,0.0,0.894194
4055.11,0.621294,0.594458,0.0,0.894225
4055.44,0.616042,0.597539,0.0,0.894255
4055.77,0.611108,0.597125,0.0,0.894286
4056.11,0.60712,0.594732,0.0,0.894317
4056.44,0.604615,0.591698,0.0,0.894348
4056.77,0.603049,0.588855,0.0,0.894379
4057.1,0.601269,0.5867,0.0,0.894411
4057.43,0.598427,0.585556,0.0,0.894442
4057.77,0.594895,0.585559,0.0,0.894474
4058.1,0.591342,0.586507,0.0,0.894506
4058.43,0.58823,0.587931,0.0,0.894538
4058.76,0.585659,0.589458,0.0,0.894571
4059.09,0.583724,0.590941,0.0,0.894604
4059.43,0.582976,0.592273,2.44732,0.894637
4059.76,0.584336,0.593379,2.43804,0.89467
4060.09,0.588252,0.59396,2.44169,0.894704
4060.42,0.592348,0.593646,2.4472,0.894738
4060.76,0.593233,0.592145,2.45203,0.894772
4061.09,0.58931,0.589414,2.45329,0.894807
4061.42,0.583403,0.585614,2.45456,0.894842
4061.75,0.578926,0.581031,2.45593,0.894877
4062.08,0.577029,0.576108,2.45742,0.894913
4062.42,0.576331,0.57141,2.45891,0.894949
4062.75,0.57538,0.567291,2.46765,0.894986
4063.08,0.573283,0.563566,2.47888,0.895023
4063.41,0.569434,0.559907,2.49023,0.89506
4063.75,0.563783,0.556424,2.50284,0.895098
4064.08,0.558239,0.55355,2.51555,0.895136
4064.41,0.555124,0.551686,2.5233,0.895174
4064.74,0.555476,0.550972,2.52106,0.895213
4065.08,0.558353,0.551837,2.51882,0.895253
4065.41,0.56268,0.554315,2.51051,0.895293
4065.74,0.567884,0.558339,2.49868,0.895333
4066.07,0.573752,0.563737,2.48694,0.895375
4066.41,0.580063,0.570252,2.47167,0.895416
4066.74,0.586515,0.57756,2.45623,0.895458
4067.07,0.592778,0.585294,2.44172,0.895501
4067.41,0.59832,0.593063,2.4301,0.895544
4067.74,0.602174,0.60047,2.41855,0.895588
4068.07,0.603377,0.607131,2.42042,0.895632
4068.4,0.602181,0.612713,2.43501,0.895677
4068.74,0.600012,0.616957,2.44974,0.895722
4069.07,0.598284,0.619722,2.44813,0.895768
4069.4,0.597967,0.621001,2.44267,0.895815
4069.74,0.59984,0.620936,2.43682,0.895862
4070.07,0.604134,0.619791,2.42752,0.89591
4070.4,0.609499,0.617906,2.41828,0.895959
4070.73,0.614305,0.615638,2.41432,0.896008
4071.07,0.617293,0.613312,2.41812,0.896058
4071.4,0.617678,0.611181,2.42193,0.896109
4071.73,0.614849,0.609409,2.43368,0.89616
4072.07,0.609663,0.608078,2.44892,0.896212
4072.4,0.603834,0.607202,2.46431,0.896265
4072.73,0.598875,0.606733,2.48073,0.896318
4073.07,0.595447,0.606575,2.49731,0.896373
4073.4,0.593994,0.60658,2.50799,0.896428
4073.73,0.594861,0.606569,2.50454,0.896483
4074.07,0.598225,0.606354,2.5011,0.89654
4074.4,0.604107,0.605769,2.4886,0.896597
4074.73,0.610425,0.604706,2.47019,0.896656
4075.07,0.613477,0.603139,2.45199,0.896714
4075.4,0.610495,0.601119,2.46413,0.896774
4075.73,0.604024,0.598762,2.47978,0.896835
4076.07,0.598386,0.596224,2.49306,0.896896
4076.4,0.596182,0.59369,2.49642,0.896959
4076.73,0.596168,0.591375,2.49979,0.897022
4077.07,0.596622,0.589519,2.50509,0.897086
4077.4,0.596701,0.5884,2.51233,0.897151
4077.73,0.596443,0.588322,2.5196,0.897217
4078.07,0.596043,0.589573,2.52207,0.897284
4078.4,0.596574,0.59238,2.52336,0.897351
4078.74,0.599496,0.596857,2.52259,0.89742
4079.07,0.605587,0.60297,2.5047,0.89749
4079.4,0.61363,0.610521,2.487,0.89756
4079.74,0.622067,0.619167,2.46879,0.897632
4080.07,0.630087,0.62847,2.44978,0.897704
4080.4,0.63782,0.637944,2.43099,0.897778
4080.74,0.645431,0.64711,2.41049,0.897853
4081.07,0.652789,0.655536,2.38947,0.897928
4081.41,0.659597,0.66287,2.36884,0.898005
4081.74,0.665473,0.668857,2.35368,0.898082
4082.07,0.669717,0.673361,2.33867,0.898161
4082.41,0.671571,0.676374,2.32932,0.898241
4082.74,0.671439,0.678023,2.33156,0.898322
4083.08,0.671572,0.678557,2.33379,0.898404
4083.41,0.674207,0.678323,2.33141,0.898487
4083.74,0.67924,0.677713,2.32632,0.898571
4084.08,0.684894,0.677119,2.32125,0.898656
4084.41,0.689542,0.676882,2.3202,0.898743
4084.75,0.69244,0.677268,2.31942,0.89883
4085.08,0.693122,0.678458,2.319,0.898919
4085.42,0.691978,0.680549,2.31969,0.899009
4085.75,0.691098,0.683571,2.32039,0.8991
4086.08,0.692701,0.687496,2.31441,0.899192
4086.42,0.697713,0.692243,2.30305,0.899285
4086.75,0.705925,0.697667,2.29178,0.89938
4087.09,0.716759,0.703564,2.26968,0.899476
4087.42,0.727595,0.709674,2.24612,0.899573
4087.76,0.735043,0.715697,2.22542,0.899672
4088.09,0.737036,0.721328,2.21729,0.899771
4088.42,0.734752,0.726291,2.2092,0.899872
4088.76,0.729868,0.730372,2.20935,0.899974
4089.09,0.724401,0.733438,2.21854,0.900078
4089.43,0.72073,0.735428,2.2278,0.900183
4089.76,0.720797,0.736342,2.23648,0.900289
4090.1,0.723056,0.736228,2.24504,0.900396
4090.43,0.724339,0.735173,2.25375,0.900505
4090.77,0.722571,0.733292,2.26335,0.900615
4091.1,0.718989,0.730713,2.27302,0.900727
4091.44,0.715416,0.727569,2.28298,0.90084
4091.77,0.712498,0.72397,2.29335,0.900954
4092.11,0.709387,0.719981,2.30378,0.90107
4092.44,0.70519,0.715625,2.31736,0.901187
4092.78,0.699578,0.710893,2.33226,0.901305
4093.11,0.692531,0.70577,2.34736,0.901425
4093.45,0.684506,0.70025,2.36443,0.901546
4093.78,0.677676,0.694347,2.38168,0.901669
4094.12,0.67456,0.688091,2.39681,0.901794
4094.45,0.675162,0.681515,2.40768,0.901919
4094.79,0.675703,0.674654,2.41863,0.902047
4095.12,0.672393,0.667553,2.43953,0.902175
4095.46,0.665064,0.660281,2.46593,0.902305
4095.79,0.655938,0.652931,2.49275,0.902437
4096.13,0.646974,0.645606,2.51917,0.902569
4096.46,0.638803,0.638401,2.54599,0.902703
4096.8,0.631695,0.63137,2.56981,0.902838
4097.13,0.625567,0.624519,2.58536,0.902975
4097.47,0.619725,0.617804,2.60106,0.903112
4097.8,0.613452,0.611156,2.61549,0.903251
4098.14,0.606643,0.604512,2.62909,0.903391
4098.47,0.599662,0.597841,2.6428,0.903532
4098.81,0.592883,0.591159,2.66062,0.903674
4099.14,0.586686,0.584531,2.67897,0.903817
4099.48,0.581445,0.578051,2.69785,0.903961
4099.81,0.577202,0.571831,2.71802,0.904105
4100.15,0.573314,0.565986,2.73842,0.904251
4100.48,0.569078,0.560637,2.75763,0.904398
4100.82,0.564219,0.555916,2.77588,0.904546
4101.16,0.558832,0.551983,2.79431,0.904694
4101.49,0.553254,0.549026,2.80966,0.904843
4101.83,0.549194,0.547253,2.82464,0.904993
4102.16,0.548858,0.546862,2.8323,0.905144
4102.5,0.553132,0.548004,2.80791,0.905295
4102.83,0.559842,0.550753,2.78383,0.905448
4103.17,0.566449,0.555089,2.75724,0.9056
4103.51,0.571896,0.560905,2.72831,0.905754
4103.84,0.576597,0.568014,2.69984,0.905907
4104.18,0.581008,0.57618,2.67642,0.906062
4104.51,0.585471,0.585132,2.65428,0.906217
4104.85,0.590279,0.594587,2.63243,0.906372
4105.18,0.595891,0.604251,2.61106,0.906528
4105.52,0.603197,0.613822,2.58994,0.906684
4105.86,0.613102,0.622995,2.56818,0.906841
4106.19,0.625033,0.631481,2.54569,0.906998
4106.53,0.63679,0.639018,2.52348,0.907155
4106.86,0.646237,0.645401,2.50804,0.907313
4107.2,0.652344,0.650508,2.49448,0.90747
4107.54,0.6546,0.65431,2.48249,0.907628
4107.87,0.653419,0.656876,2.48262,0.907787
4108.21,0.651899,0.658353,2.48275,0.907945
4108.54,0.653521,0.658936,2.48061,0.908103
4108.88,0.65848,0.65884,2.47547,0.908262
4109.22,0.663029,0.658266,2.47034,0.908421
4109.55,0.663686,0.657398,2.47034,0.908579
4109.89,0.661323,0.656401,2.47201,0.908738
4110.23,0.659027,0.655431,2.47395,0.908896
4110.56,0.658952,0.654638,2.47906,0.909055
4110.9,0.660205,0.654169,2.48419,0.909213
4111.23,0.661308,0.654152,2.48853,0.909372
4111.57,0.661542,0.654685,2.4917,0.90953
4111.91,0.661169,0.655831,2.49486,0.909687
4112.24,0.660555,0.657615,2.49377,0.909845
4112.58,0.660444,0.660031,2.49106,0.910002
4112.92,0.661786,0.663047,2.4881,0.91016
4113.25,0.665153,0.666597,2.48041,0.910316
4113.59,0.669802,0.670575,2.47276,0.910473
4113.93,0.674709,0.674826,2.46525,0.910629
4114.26,0.678879,0.679141,2.45797,0.910784
4114.6,0.681363,0.683282,2.45073,0.910939
4114.94,0.681387,0.687006,2.44625,0.911094
4115.27,0.679947,0.690108,2.44293,0.911248
4115.61,0.679072,0.692434,2.4395,0.911401
4115.95,0.680482,0.6939,2.43208,0.911554
4116.28,0.684703,0.694483,2.42469,0.911706
4116.62,0.691955,0.694216,2.41533,0.911858
4116.96,0.700662,0.693176,2.40242,0.912009
4117.29,0.706638,0.69147,2.38962,0.912159
4117.63,0.705912,0.689228,2.39816,0.912309
4117.97,0.699116,0.686595,2.41666,0.912457
4118.3,0.689706,0.683725,2.43534,0.912605
4118.64,0.680696,0.680772,2.45191,0.912752
4118.98,0.673219,0.677887,2.46865,0.912898
4119.32,0.667951,0.675215,2.48203,0.913044
4119.65,0.665027,0.672885,2.48875,0.913188
4119.99,0.663767,0.671,2.49549,0.913331
4120.33,0.663432,0.669623,2.50041,0.913473
4120.66,0.663417,0.668778,2.50444,0.913615
4121.0,0.6632,0.668458,2.50849,0.913755
4121.34,0.662419,0.668636,2.51725,0.913894
4121.68,0.661342,0.66929,2.52605,0.914032
4122.01,0.660405,0.670402,2.53394,0.914168
4122.35,0.66068,0.671953,2.53997,0.914304
4122.69,0.664216,0.673902,2.54602,0.914438
4123.02,0.672762,0.676166,2.52929,0.914571
4123.36,0.68353,0.678617,2.50152,0.914703
4123.7,0.690797,0.681097,2.4742,0.914833
4124.04,0.690557,0.683446,2.48525,0.914963
4124.37,0.685908,0.685522,2.49643,0.91509
4124.71,0.681699,0.687214,2.5035,0.915216
4125.05,0.680474,0.688443,2.50211,0.915341
4125.39,0.681184,0.689152,2.50072,0.915464
4125.72,0.682503,0.689306,2.49782,0.915586
4126.06,0.683564,0.688891,2.49417,0.915706
4126.4,0.683798,0.687914,2.49053,0.915825
4126.74,0.682835,0.686397,2.48803,0.915942
4127.07,0.681098,0.684367,2.48554,0.916057
4127.41,0.679203,0.681843,2.48381,0.916171
4127.75,0.677505,0.678831,2.48363,0.916283
4128.09,0.67595,0.675321,2.48345,0.916393
4128.43,0.67444,0.671313,2.48675,0.916501
4128.76,0.672778,0.666821,2.49181,0.916608
4129.1,0.6707,0.66188,2.49691,0.916712
4129.44,0.667956,0.656545,2.51048,0.916815
4129.78,0.664342,0.650892,2.52415,0.916916
4130.11,0.659673,0.645029,2.54034,0.917015
4130.45,0.653873,0.639099,2.56139,0.917112
4130.79,0.647042,0.633264,2.58271,0.917207
4131.13,0.639377,0.627702,2.6004,0.9173
4131.47,0.632012,0.622585,2.61641,0.917391
4131.8,0.626671,0.618067,2.63253,0.91748
4132.14,0.624484,0.614281,2.64691,0.917566
4132.48,0.624269,0.611367,2.66141,0.917651
4132.82,0.624298,0.609482,2.67342,0.917733
4133.16,0.623535,0.60879,2.68072,0.917813
4133.5,0.621965,0.609426,2.68804,0.917891
4133.83,0.619728,0.611458,2.68903,0.917966
4134.17,0.617739,0.614858,2.68717,0.918039
4134.51,0.617386,0.619505,2.68505,0.91811
4134.85,0.619693,0.625212,2.67469,0.918178
4135.19,0.624325,0.631772,2.66438,0.918244
4135.53,0.630634,0.638983,2.65079,0.918308
4135.86,0.638022,0.646641,2.63168,0.918369
4136.2,0.645956,0.654523,2.61276,0.918427
4136.54,0.653915,0.662373,2.59134,0.918483
4136.88,0.661464,0.66991,2.56908,0.918536
4137.22,0.66822,0.676859,2.54743,0.918587
4137.56,0.67383,0.682988,2.53218,0.918635
4137.89,0.678047,0.68813,2.51706,0.91868
4138.23,0.680654,0.692177,2.50578,0.918723
4138.57,0.681807,0.695041,2.50028,0.918763
4138.91,0.682146,0.696627,2.4948,0.918801
4139.25,0.682243,0.696818,2.49406,0.918836
4139.59,0.681676,0.695486,2.49503,0.918868
4139.93,0.679496,0.692536,2.4969,0.918898
4140.26,0.675114,0.687953,2.50949,0.918926
4140.6,0.669111,0.68182,2.52217,0.918951
4140.94,0.662306,0.674331,2.53714,0.918973
4141.28,0.655678,0.665762,2.55532,0.918994
4141.62,0.6504,0.656441,2.57369,0.919012
4141.96,0.647358,0.64672,2.58488,0.919027
4142.3,0.644939,0.636964,2.59386,0.91904
4142.64,0.640292,0.627542,2.60459,0.919051
4142.98,0.631963,0.618834,2.62954,0.91906
4143.31,0.622578,0.611214,2.65486,0.919067
4143.65,0.615428,0.605035,2.67435,0.919071
4143.99,0.611772,0.600585,2.68653,0.919073
4144.33,0.610568,0.598047,2.6988,0.919073
4144.67,0.610731,0.597469,2.70191,0.919071
4145.01,0.611772,0.598753,2.70271,0.919067
4145.35,0.61347,0.601669,2.70239,0.919061
4145.69,0.615691,0.605892,2.6955,0.919053
4146.03,0.618518,0.611045,2.68864,0.919043
4146.37,0.622055,0.616739,2.68027,0.919031
4146.71,0.626048,0.622607,2.67035,0.919016
4147.05,0.629872,0.628314,2.66048,0.919001
4147.38,0.632974,0.633565,2.65166,0.918983
4147.72,0.635386,0.63811,2.64307,0.918963
4148.06,0.637372,0.641757,2.63464,0.918941
4148.4,0.639473,0.644386,2.62674,0.918918
4148.74,0.642856,0.645944,2.61888,0.918893
4149.08,0.648648,0.646454,2.60639,0.918866
4149.42,0.655328,0.64601,2.58996,0.918838
4149.76,0.658964,0.644769,2.57369,0.918808
4150.1,0.656467,0.642935,2.58631,0.918776
4150.44,0.650071,0.640739,2.60285,0.918742
4150.78,0.643872,0.638401,2.61745,0.918707
4151.12,0.640186,0.636099,2.62522,0.918671
4151.46,0.637693,0.633934,2.63303,0.918632
4151.8,0.634716,0.631929,2.64524,0.918593
4152.14,0.630893,0.630047,2.66069,0.918552
4152.48,0.62692,0.628231,2.67627,0.918509
4152.82,0.623479,0.626449,2.68903,0.918465
4153.16,0.621019,0.624703,2.70168,0.918419
4153.5,0.619915,0.623028,2.71214,0.918373
4153.84,0.620119,0.621475,2.71692,0.918324
4154.18,0.620827,0.6201,2.72172,0.918275
4154.52,0.621216,0.618974,2.72314,0.918224
4154.86,0.621196,0.618191,2.72264,0.918172
4155.2,0.621192,0.617869,2.72214,0.918119
4155.54,0.621878,0.618139,2.71531,0.918064
4155.88,0.624933,0.61911,2.70844,0.918009
4156.22,0.632236,0.620839,2.69682,0.917952
4156.56,0.642517,0.623314,2.6762,0.917894
4156.9,0.649743,0.626476,2.6558,0.917835
4157.24,0.648329,0.630246,2.66125,0.917775
4157.58,0.641512,0.634552,2.67803,0.917714
4157.92,0.637791,0.639339,2.6927,0.917652
4158.26,0.642991,0.644552,2.66486,0.917589
4158.6,0.653498,0.650117,2.63745,0.917525
4158.94,0.663731,0.65593,2.61426,0.91746
4159.28,0.670567,0.661861,2.59691,0.917394
4159.62,0.674032,0.667776,2.57973,0.917327
4159.96,0.674564,0.67355,2.57309,0.91726
4160.3,0.674307,0.679078,2.56974,0.917191
4160.64,0.676264,0.684272,2.56582,0.917122
4160.98,0.681832,0.689056,2.55755,0.917052
4161.32,0.68785,0.693359,2.54933,0.916982
4161.66,0.690474,0.697112,2.54453,0.916911
4162.0,0.689058,0.700252,2.54352,0.916839
4162.34,0.686386,0.702717,2.54251,0.916766
4162.68,0.685099,0.704444,2.54227,0.916693
4163.02,0.685712,0.70537,2.54218,0.916619
4163.36,0.687862,0.705442,2.54257,0.916545
4163.7,0.690819,0.704634,2.54504,0.91647
4164.05,0.693014,0.702953,2.54751,0.916394
4164.39,0.692843,0.700456,2.55507,0.916318
4164.73,0.690254,0.697251,2.56693,0.916242
4165.07,0.686578,0.693488,2.57887,0.916165
4165.41,0.683033,0.689346,2.59084,0.916088
4165.75,0.67998,0.685015,2.60289,0.916011
4166.09,0.677492,0.680686,2.61456,0.915933
4166.43,0.675355,0.67653,2.62501,0.915855
4166.77,0.67282,0.672687,2.63552,0.915777
4167.11,0.669144,0.669251,2.64672,0.915698
4167.45,0.664536,0.666277,2.65837,0.915619
4167.79,0.659894,0.66378,2.6701,0.91554
4168.14,0.65613,0.66174,2.68189,0.915461
4168.48,0.654162,0.660085,2.69376,0.915382
4168.82,0.654876,0.658686,2.70142,0.915302
4169.16,0.657557,0.657351,2.70096,0.915223
4169.5,0.659076,0.655842,2.7005,0.915143
4169.84,0.656452,0.653915,2.70924,0.915064
4170.18,0.650233,0.651374,2.72189,0.914984
4170.52,0.643015,0.648117,2.73456,0.914905
4170.86,0.636888,0.644155,2.74632,0.914825
4171.21,0.632203,0.639592,2.75816,0.914746
4171.55,0.628939,0.634594,2.76968,0.914667
4171.89,0.626537,0.629354,2.78075,0.914588
4172.23,0.623795,0.624065,2.79188,0.914509
4172.57,0.619648,0.618916,2.80424,0.91443
4172.91,0.614381,0.614098,2.81699,0.914351
4173.25,0.608893,0.609808,2.82986,0.914273
4173.6,0.604137,0.606228,2.84299,0.914195
4173.94,0.601186,0.603501,2.85621,0.914118
4174.28,0.601022,0.601702,2.86674,0.91404
4174.62,0.602303,0.600827,2.87479,0.913963
4174.96,0.601495,0.600797,2.88286,0.913887
4175.3,0.596118,0.601494,2.89631,0.913811
4175.64,0.590084,0.60279,2.91053,0.913735
4175.99,0.589508,0.604569,2.91673,0.91366
4176.33,0.596598,0.606733,2.89909,0.913586
4176.67,0.60603,0.609195,2.88161,0.913511
4177.01,0.611995,0.611857,2.87042,0.913438
4177.35,0.613857,0.614603,2.86304,0.913365
4177.7,0.614768,0.617317,2.8557,0.913293
4178.04,0.617381,0.619897,2.84039,0.913221
4178.38,0.621909,0.622267,2.82509,0.91315
4178.72,0.627912,0.624393,2.81075,0.91308
4179.06,0.634252,0.626271,2.79805,0.913011
4179.4,0.638759,0.627919,2.78543,0.912942
4179.75,0.639471,0.629365,2.78475,0.912874
4180.09,0.637187,0.630649,2.78867,0.912807
4180.43,0.634245,0.631824,2.79299,0.912741
4180.77,0.632488,0.632965,2.80127,0.912675
4181.11,0.63218,0.634158,2.80959,0.912611
4181.46,0.633277,0.635492,2.81325,0.912547
4181.8,0.635539,0.637037,2.81135,0.912485
4182.14,0.638514,0.638821,2.80945,0.912423
4182.48,0.641676,0.640828,2.80746,0.912362
4182.83,0.644117,0.642985,2.80546,0.912302
4183.17,0.644767,0.645176,2.80454,0.912244
4183.51,0.643491,0.647263,2.80798,0.912186
4183.85,0.642241,0.6491,2.81144,0.912129
4184.19,0.643147,0.65057,2.80677,0.912073
4184.54,0.646461,0.651597,2.79599,0.912017
4184.88,0.65087,0.65217,2.78526,0.911963
4185.22,0.655045,0.652324,2.77621,0.91191
4185.56,0.657831,0.652124,2.7673,0.911857
4185.91,0.658144,0.651636,2.76326,0.911806
4186.25,0.656247,0.650911,2.76991,0.911755
4186.59,0.654612,0.649986,2.77659,0.911706
4186.93,0.655631,0.648902,2.77192,0.911657
4187.28,0.658553,0.647736,2.76203,0.911609
4187.62,0.660683,0.646617,2.75286,0.911562
4187.96,0.660043,0.645718,2.75475,0.911515
4188.3,0.657159,0.645226,2.75663,0.91147
4188.65,0.653089,0.645304,2.76085,0.911426
4188.99,0.64891,0.646053,2.76816,0.911382
4189.33,0.645728,0.647501,2.7755,0.911339
4189.68,0.644564,0.649621,2.77483,0.911297
4190.02,0.645837,0.652344,2.7722,0.911256
4190.36,0.649693,0.655576,2.76845,0.911216
4190.7,0.655761,0.659198,2.75955,0.911177
4191.05,0.662454,0.663064,2.75068,0.911138
4191.39,0.668051,0.666984,2.74454,0.9111
4191.73,0.671672,0.670728,2.74057,0.911064
4192.08,0.673169,0.674049,2.7366,0.911027
4192.42,0.672721,0.676706,2.74211,0.910992
4192.76,0.672013,0.678483,2.74835,0.910958
4193.1,0.673166,0.679213,2.75359,0.910924
4193.45,0.676197,0.678778,2.75653,0.910892
4193.79,0.677615,0.677118,2.75947,0.91086
4194.13,0.673953,0.674233,2.78063,0.910828
4194.48,0.665716,0.670188,2.81064,0.910798
4194.82,0.655857,0.665115,2.84083,0.910768
4195.16,0.646908,0.659201,2.86651,0.91074
4195.51,0.639856,0.652663,2.89254,0.910712
4195.85,0.635339,0.645728,2.9108,0.910684
4196.19,0.633091,0.638614,2.91876,0.910658
4196.54,0.631781,0.631518,2.92675,0.910632
4196.88,0.630114,0.624612,2.93188,0.910608
4197.22,0.627456,0.618047,2.93639,0.910583
4197.57,0.623456,0.611959,2.9428,0.91056
4197.91,0.618139,0.606472,2.95709,0.910537
4198.25,0.612376,0.601697,2.97148,0.910516
4198.6,0.607121,0.597729,2.99121,0.910495
4198.94,0.602775,0.594652,3.01505,0.910474
4199.28,0.599283,0.592522,3.03918,0.910455
4199.63,0.596616,0.591358,3.05878,0.910436
4199.97,0.594913,0.591137,3.07834,0.910418
4200.32,0.594358,0.591793,3.08962,0.9104
4200.66,0.595091,0.593223,3.08427,0.910384
4201.0,0.597181,0.595312,3.07893,0.910368
4201.35,0.600699,0.597961,3.05991,0.910352
4201.69,0.605766,0.601109,3.03576,0.910338
4202.03,0.612538,0.604746,3.01123,0.910324
4202.38,0.620743,0.608899,2.98116,0.910311
4202.72,0.628855,0.613621,2.95154,0.910299
4203.07,0.635158,0.618957,2.92749,0.910287
4203.41,0.639133,0.624919,2.9092,0.910276
4203.75,0.641512,0.631461,2.89107,0.910266
4204.1,0.643228,0.638486,2.87872,0.910256
4204.44,0.646068,0.645857,2.86732,0.910247
4204.79,0.652123,0.653425,2.85149,0.910239
4205.13,0.661677,0.661045,2.82242,0.910231
4205.47,0.671495,0.668585,2.7938,0.910224
4205.82,0.6782,0.675918,2.77184,0.910218
4206.16,0.681905,0.682899,2.75373,0.910212
4206.51,0.685189,0.689359,2.73584,0.910207
4206.85,0.689984,0.695119,2.72111,0.910203
4207.19,0.695571,0.700015,2.7065,0.9102
4207.54,0.700617,0.703938,2.69253,0.910197
4207.88,0.704369,0.706861,2.67944,0.910194
4208.23,0.706818,0.708849,2.66644,0.910193
4208.57,0.708046,0.710032,2.6567,0.910191
4208.92,0.708439,0.710566,2.64785,0.910191
4209.26,0.708525,0.710605,2.63958,0.910191
4209.6,0.708762,0.71027,2.63386,0.910192
