 wavelength (Angstrom)     16831
        4050.07        4050.15        4050.22        4050.29        4050.37
        4050.44        4050.52        4050.59        4050.66        4050.74
        4050.81        4050.88        4050.96        4051.03        4051.10
        4051.18        4051.25        4051.33        4051.40        4051.47
        4051.55        4051.62        4051.69        4051.77        4051.84
        4051.91        4051.99        4052.06        4052.14        4052.21
        4052.28        4052.36        4052.43        4052.50        4052.58
        4052.65        4052.73        4052.80        4052.87        4052.95
        4053.02        4053.09        4053.17        4053.24        4053.31
        4053.39        4053.46        4053.54        4053.61        4053.68
        4053.76        4053.83        4053.90        4053.98        4054.05
        4054.13        4054.20        4054.27        4054.35        4054.42
        4054.49        4054.57        4054.64        4054.72        4054.79
        4054.86        4054.94        4055.01        4055.08        4055.16
        4055.23        4055.31        4055.38        4055.45        4055.53
        4055.60        4055.67        4055.75        4055.82        4055.90
        4055.97        4056.04        4056.12        4056.19        4056.26
        4056.34        4056.41        4056.49        4056.56        4056.63
        4056.71        4056.78        4056.85        4056.93        4057.00
        4057.08        4057.15        4057.22        4057.30        4057.37
        4057.44        4057.52        4057.59        4057.67        4057.74
        4057.81        4057.89        4057.96        4058.03        4058.11
        4058.18        4058.26        4058.33        4058.40        4058.48
        4058.55        4058.62        4058.70        4058.77        4058.85
        4058.92        4058.99        4059.07        4059.14        4059.21
        4059.29        4059.36        4059.44        4059.51        4059.58
        4059.66        4059.73        4059.81        4059.88        4059.95
        4060.03        4060.10        4060.17        4060.25        4060.32
        4060.40        4060.47        4060.54        4060.62        4060.69
        4060.77        4060.84        4060.91        4060.99        4061.06
        4061.13        4061.21        4061.28        4061.36        4061.43
        4061.50        4061.58        4061.65        4061.73        4061.80
        4061.87        4061.95        4062.02        4062.09        4062.17
        4062.24        4062.32        4062.39        4062.46        4062.54
        4062.61        4062.69        4062.76        4062.83        4062.91
        4062.98        4063.05        4063.13        4063.20        4063.28
        4063.35        4063.42        4063.50        4063.57        4063.65
        4063.72        4063.79        4063.87        4063.94        4064.01
        4064.09        4064.16        4064.24        4064.31        4064.38
        4064.46        4064.53        4064.61        4064.68        4064.75
        4064.83        4064.90        4064.98        4065.05        4065.12
        4065.20        4065.27        4065.35        4065.42        4065.49
        4065.57        4065.64        4065.71        4065.79        4065.86
        4065.94        4066.01        4066.08        4066.16        4066.23
        4066.31        4066.38        4066.45        4066.53        4066.60
        4066.68        4066.75        4066.82        4066.90        4066.97
        4067.05        4067.12        4067.19        4067.27        4067.34
        4067.42        4067.49        4067.56        4067.64        4067.71
        4067.79        4067.86        4067.93        4068.01        4068.08
        4068.15        4068.23        4068.30        4068.38        4068.45
        4068.52        4068.60        4068.67        4068.75        4068.82
        4068.89        4068.97        4069.04        4069.12        4069.19
        4069.26        4069.34        4069.41        4069.49        4069.56
        4069.63        4069.71        4069.78        4069.86        4069.93
        4070.00        4070.08        4070.15        4070.23        4070.30
        4070.37        4070.45        4070.52        4070.60        4070.67
        4070.74        4070.82        4070.89        4070.97        4071.04
        4071.11        4071.19        4071.26        4071.34        4071.41
        4071.48        4071.56        4071.63        4071.71        4071.78
        4071.85        4071.93        4072.00        4072.08        4072.15
        4072.23        4072.30        4072.37        4072.45        4072.52
        4072.60        4072.67        4072.74        4072.82        4072.89
        4072.97        4073.04        4073.11        4073.19        4073.26
        4073.34        4073.41        4073.48        4073.56        4073.63
        4073.71        4073.78        4073.85        4073.93        4074.00
        4074.08        4074.15        4074.22        4074.30        4074.37
        4074.45        4074.52        4074.60        4074.67        4074.74
        4074.82        4074.89        4074.97        4075.04        4075.11
        4075.19        4075.26        4075.34        4075.41        4075.48
        4075.56        4075.63        4075.71        4075.78        4075.85
        4075.93        4076.00        4076.08        4076.15        4076.23
        4076.30        4076.37        4076.45        4076.52        4076.60
        4076.67        4076.74        4076.82        4076.89        4076.97
        4077.04        4077.11        4077.19        4077.26        4077.34
        4077.41        4077.49        4077.56        4077.63        4077.71
        4077.78        4077.86        4077.93        4078.00        4078.08
        4078.15        4078.23        4078.30        4078.38        4078.45
        4078.52        4078.60        4078.67        4078.75        4078.82
        4078.89        4078.97        4079.04        4079.12        4079.19
        4079.26        4079.34        4079.41        4079.49        4079.56
        4079.64        4079.71        4079.78        4079.86        4079.93
        4080.01        4080.08        4080.16        4080.23        4080.30
        4080.38        4080.45        4080.53        4080.60        4080.67
        4080.75        4080.82        4080.90        4080.97        4081.05
        4081.12        4081.19        4081.27        4081.34        4081.42
        4081.49        4081.56        4081.64        4081.71        4081.79
        4081.86        4081.94        4082.01        4082.08        4082.16
        4082.23        4082.31        4082.38        4082.46        4082.53
        4082.60        4082.68        4082.75        4082.83        4082.90
        4082.98        4083.05        4083.12        4083.20        4083.27
        4083.35        4083.42        4083.49        4083.57        4083.64
        4083.72        4083.79        4083.87        4083.94        4084.01
        4084.09        4084.16        4084.24        4084.31        4084.39
        4084.46        4084.53        4084.61        4084.68        4084.76
        4084.83        4084.91        4084.98        4085.05        4085.13
        4085.20        4085.28        4085.35        4085.43        4085.50
        4085.57        4085.65        4085.72        4085.80        4085.87
        4085.95        4086.02        4086.09        4086.17        4086.24
        4086.32        4086.39        4086.47        4086.54        4086.61
        4086.69        4086.76        4086.84        4086.91        4086.99
        4087.06        4087.13        4087.21        4087.28        4087.36
        4087.43        4087.51        4087.58        4087.65        4087.73
        4087.80        4087.88        4087.95        4088.03        4088.10
        4088.17        4088.25        4088.32        4088.40        4088.47
        4088.55        4088.62        4088.70        4088.77        4088.84
        4088.92        4088.99        4089.07        4089.14        4089.22
        4089.29        4089.36        4089.44        4089.51        4089.59
        4089.66        4089.74        4089.81        4089.88        4089.96
        4090.03        4090.11        4090.18        4090.26        4090.33
        4090.41        4090.48        4090.55        4090.63        4090.70
        4090.78        4090.85        4090.93        4091.00        4091.07
        4091.15        4091.22        4091.30        4091.37        4091.45
        4091.52        4091.60        4091.67        4091.74        4091.82
        4091.89        4091.97        4092.04        4092.12        4092.19
        4092.26        4092.34        4092.41        4092.49        4092.56
        4092.64        4092.71        4092.79        4092.86        4092.93
        4093.01        4093.08        4093.16        4093.23        4093.31
        4093.38        4093.46        4093.53        4093.60        4093.68
        4093.75        4093.83        4093.90        4093.98        4094.05
        4094.13        4094.20        4094.27        4094.35        4094.42
        4094.50        4094.57        4094.65        4094.72        4094.80
        4094.87        4094.94        4095.02        4095.09        4095.17
        4095.24        4095.32        4095.39        4095.47        4095.54
        4095.61        4095.69        4095.76        4095.84        4095.91
        4095.99        4096.06        4096.14        4096.21        4096.28
        4096.36        4096.43        4096.51        4096.58        4096.66
        4096.73        4096.81        4096.88        4096.96        4097.03
        4097.10        4097.18        4097.25        4097.33        4097.40
        4097.48        4097.55        4097.63        4097.70        4097.77
        4097.85        4097.92        4098.00        4098.07        4098.15
        4098.22        4098.30        4098.37        4098.45        4098.52
        4098.59        4098.67        4098.74        4098.82        4098.89
        4098.97        4099.04        4099.12        4099.19        4099.26
        4099.34        4099.41        4099.49        4099.56        4099.64
        4099.71        4099.79        4099.86        4099.94        4100.01
        4100.08        4100.16        4100.23        4100.31        4100.38
        4100.46        4100.53        4100.61        4100.68        4100.76
        4100.83        4100.90        4100.98        4101.05        4101.13
        4101.20        4101.28        4101.35        4101.43        4101.50
        4101.58        4101.65        4101.73        4101.80        4101.87
        4101.95        4102.02        4102.10        4102.17        4102.25
        4102.32        4102.40        4102.47        4102.55        4102.62
        4102.69        4102.77        4102.84        4102.92        4102.99
        4103.07        4103.14        4103.22        4103.29        4103.37
        4103.44        4103.52        4103.59        4103.66        4103.74
        4103.81        4103.89        4103.96        4104.04        4104.11
        4104.19        4104.26        4104.34        4104.41        4104.49
        4104.56        4104.63        4104.71        4104.78        4104.86
        4104.93        4105.01        4105.08        4105.16        4105.23
        4105.31        4105.38        4105.46        4105.53        4105.61
        4105.68        4105.75        4105.83        4105.90        4105.98
        4106.05        4106.13        4106.20        4106.28        4106.35
        4106.43        4106.50        4106.58        4106.65        4106.72
        4106.80        4106.87        4106.95        4107.02        4107.10
        4107.17        4107.25        4107.32        4107.40        4107.47
        4107.55        4107.62        4107.70        4107.77        4107.85
        4107.92        4107.99        4108.07        4108.14        4108.22
        4108.29        4108.37        4108.44        4108.52        4108.59
        4108.67        4108.74        4108.82        4108.89        4108.97
        4109.04        4109.11        4109.19        4109.26        4109.34
        4109.41        4109.49        4109.56        4109.64        4109.71
        4109.79        4109.86        4109.94        4110.01        4110.09
        4110.16        4110.24        4110.31        4110.39        4110.46
        4110.53        4110.61        4110.68        4110.76        4110.83
        4110.91        4110.98        4111.06        4111.13        4111.21
        4111.28        4111.36        4111.43        4111.51        4111.58
        4111.66        4111.73        4111.81        4111.88        4111.95
        4112.03        4112.10        4112.18        4112.25        4112.33
        4112.40        4112.48        4112.55        4112.63        4112.70
        4112.78        4112.85        4112.93        4113.00        4113.08
        4113.15        4113.23        4113.30        4113.38        4113.45
        4113.53        4113.60        4113.67        4113.75        4113.82
        4113.90        4113.97        4114.05        4114.12        4114.20
        4114.27        4114.35        4114.42        4114.50        4114.57
        4114.65        4114.72        4114.80        4114.87        4114.95
        4115.02        4115.10        4115.17        4115.25        4115.32
        4115.40        4115.47        4115.55        4115.62        4115.69
        4115.77        4115.84        4115.92        4115.99        4116.07
        4116.14        4116.22        4116.29        4116.37        4116.44
        4116.52        4116.59        4116.67        4116.74        4116.82
        4116.89        4116.97        4117.04        4117.12        4117.19
        4117.27        4117.34        4117.42        4117.49        4117.57
        4117.64        4117.72        4117.79        4117.87        4117.94
        4118.02        4118.09        4118.16        4118.24        4118.31
        4118.39        4118.46        4118.54        4118.61        4118.69
        4118.76        4118.84        4118.91        4118.99        4119.06
        4119.14        4119.21        4119.29        4119.36        4119.44
        4119.51        4119.59        4119.66        4119.74        4119.81
        4119.89        4119.96        4120.04        4120.11        4120.19
        4120.26        4120.34        4120.41        4120.49        4120.56
        4120.64        4120.71        4120.79        4120.86        4120.94
        4121.01        4121.09        4121.16        4121.24        4121.31
        4121.39        4121.46        4121.54        4121.61        4121.69
        4121.76        4121.84        4121.91        4121.99        4122.06
        4122.14        4122.21        4122.29        4122.36        4122.43
        4122.51        4122.58        4122.66        4122.73        4122.81
        4122.88        4122.96        4123.03        4123.11        4123.18
        4123.26        4123.33        4123.41        4123.48        4123.56
        4123.63        4123.71        4123.78        4123.86        4123.93
        4124.01        4124.08        4124.16        4124.23        4124.31
        4124.38        4124.46        4124.53        4124.61        4124.68
        4124.76        4124.83        4124.91        4124.98        4125.06
        4125.13        4125.21        4125.28        4125.36        4125.43
        4125.51        4125.58        4125.66        4125.73        4125.81
        4125.88        4125.96        4126.03        4126.11        4126.18
        4126.26        4126.33        4126.41        4126.48        4126.56
        4126.63        4126.71        4126.78        4126.86        4126.93
        4127.01        4127.08        4127.16        4127.23        4127.31
        4127.38        4127.46        4127.53        4127.61        4127.68
        4127.76        4127.84        4127.91        4127.99        4128.06
        4128.14        4128.21        4128.29        4128.36        4128.44
        4128.51        4128.59        4128.66        4128.74        4128.81
        4128.89        4128.96        4129.04        4129.11        4129.19
        4129.26        4129.34        4129.41        4129.49        4129.56
        4129.64        4129.71        4129.79        4129.86        4129.94
        4130.01        4130.09        4130.16        4130.24        4130.31
        4130.39        4130.46        4130.54        4130.61        4130.69
        4130.76        4130.84        4130.91        4130.99        4131.06
        4131.14        4131.21        4131.29        4131.36        4131.44
        4131.51        4131.59        4131.66        4131.74        4131.81
        4131.89        4131.96        4132.04        4132.12        4132.19
        4132.27        4132.34        4132.42        4132.49        4132.57
        4132.64        4132.72        4132.79        4132.87        4132.94
        4133.02        4133.09        4133.17        4133.24        4133.32
        4133.39        4133.47        4133.54        4133.62        4133.69
        4133.77        4133.84        4133.92        4133.99        4134.07
        4134.14        4134.22        4134.29        4134.37        4134.44
        4134.52        4134.60        4134.67        4134.75        4134.82
        4134.90        4134.97        4135.05        4135.12        4135.20
        4135.27        4135.35        4135.42        4135.50        4135.57
        4135.65        4135.72        4135.80        4135.87        4135.95
        4136.02        4136.10        4136.17        4136.25        4136.32
        4136.40        4136.47        4136.55        4136.63        4136.70
        4136.78        4136.85        4136.93        4137.00        4137.08
        4137.15        4137.23        4137.30        4137.38        4137.45
        4137.53        4137.60        4137.68        4137.75        4137.83
        4137.90        4137.98        4138.05        4138.13        4138.21
        4138.28        4138.36        4138.43        4138.51        4138.58
        4138.66        4138.73        4138.81        4138.88        4138.96
        4139.03        4139.11        4139.18        4139.26        4139.33
        4139.41        4139.48        4139.56        4139.63        4139.71
        4139.79        4139.86        4139.94        4140.01        4140.09
        4140.16        4140.24        4140.31        4140.39        4140.46
        4140.54        4140.61        4140.69        4140.76        4140.84
        4140.91        4140.99        4141.07        4141.14        4141.22
        4141.29        4141.37        4141.44        4141.52        4141.59
        4141.67        4141.74        4141.82        4141.89        4141.97
        4142.04        4142.12        4142.19        4142.27        4142.35
        4142.42        4142.50        4142.57        4142.65        4142.72
        4142.80        4142.87        4142.95        4143.02        4143.10
        4143.17        4143.25        4143.32        4143.40        4143.48
        4143.55        4143.63        4143.70        4143.78        4143.85
        4143.93        4144.00        4144.08        4144.15        4144.23
        4144.30        4144.38        4144.45        4144.53        4144.61
        4144.68        4144.76        4144.83        4144.91        4144.98
        4145.06        4145.13        4145.21        4145.28        4145.36
        4145.43        4145.51        4145.59        4145.66        4145.74
        4145.81        4145.89        4145.96        4146.04        4146.11
        4146.19        4146.26        4146.34        4146.41        4146.49
        4146.57        4146.64        4146.72        4146.79        4146.87
        4146.94        4147.02        4147.09        4147.17        4147.24
        4147.32        4147.39        4147.47        4147.55        4147.62
