Wavelength,Spectra,Best_Fitting_Model,Non_parm_Extinction_Curve,Non_param_Adjusted_Continuum
4050.07,0.618799,0.29344,0.0,0.943505
4050.15,0.620701,0.301095,0.0,0.943348
4050.22,0.622546,0.308948,0.0,0.94319
4050.29,0.624317,0.316786,0.0,0.943033
4050.37,0.626016,0.324373,0.0,0.942876
4050.44,0.627648,0.33165,0.0,0.942718
4050.52,0.629213,0.338767,0.0,0.942561
4050.59,0.630707,0.346009,0.0,0.942404
4050.66,0.632126,0.35358,0.0,0.942246
4050.74,0.633467,0.361417,0.0,0.942089
4050.81,0.634728,0.369285,0.0,0.941932
4050.88,0.635909,0.377023,0.0,0.941775
4050.96,0.637005,0.384541,0.0,0.941617
4051.03,0.638015,0.391758,0.0,0.94146
4051.1,0.638936,0.398573,0.0,0.941303
4051.18,0.639769,0.405031,0.0,0.941146
4051.25,0.640516,0.411501,0.0,0.940988
4051.33,0.641179,0.418491,0.0,0.940831
4051.4,0.641759,0.426322,0.0,0.940674
4051.47,0.642261,0.434638,0.0,0.940517
4051.55,0.642685,0.44226,0.0,0.94036
4051.62,0.643034,0.44802,0.0,0.940202
4051.69,0.643311,0.451916,0.0,0.940045
4051.77,0.643518,0.455187,0.0,0.939888
4051.84,0.643657,0.460631,0.0,0.939731
4051.91,0.64373,0.478043,2.16648,0.939574
4051.99,0.64374,0.483046,2.16638,0.939417
4052.06,0.643689,0.485929,2.16688,0.93926
4052.14,0.643579,0.489227,2.1675,0.939103
4052.21,0.643417,0.49404,2.16818,0.938946
4052.28,0.643207,0.50033,2.16938,0.938789
4052.36,0.642955,0.506987,2.17058,0.938632
4052.43,0.642668,0.512923,2.17177,0.938475
4052.5,0.642352,0.517868,2.17297,0.938318
4052.58,0.642014,0.522128,2.17417,0.938161
4052.65,0.64166,0.526157,2.17537,0.938004
4052.73,0.641295,0.530252,2.17658,0.937847
4052.8,0.640926,0.534515,2.17778,0.93769
4052.87,0.64056,0.538893,2.17898,0.937533
4052.95,0.640202,0.543286,2.18019,0.937376
4053.02,0.639862,0.547573,2.1812,0.93722
4053.09,0.639542,0.551684,2.1817,0.937063
4053.17,0.639247,0.555606,2.18219,0.936906
4053.24,0.638974,0.559328,2.1822,0.936749
4053.31,0.638723,0.562854,2.18181,0.936593
4053.39,0.638485,0.566228,2.18143,0.936436
4053.46,0.638253,0.569509,2.18105,0.93628
4053.54,0.638021,0.57266,2.18066,0.936123
4053.61,0.637784,0.575669,2.18028,0.935966
4053.68,0.637536,0.578569,2.1799,0.93581
4053.76,0.637272,0.581402,2.17951,0.935653
4053.83,0.636985,0.584088,2.17913,0.935497
4053.9,0.636669,0.58655,2.17875,0.935341
4053.98,0.636319,0.588769,2.17836,0.935184
4054.05,0.635927,0.590813,2.17861,0.935028
4054.13,0.635489,0.592734,2.17912,0.934872
4054.2,0.635002,0.594622,2.17963,0.934715
4054.27,0.634463,0.596519,2.18183,0.934559
4054.35,0.633873,0.598383,2.18405,0.934403
4054.42,0.633235,0.600115,2.18628,0.934247
4054.49,0.63255,0.601678,2.18851,0.934091
4054.57,0.63182,0.603076,2.19074,0.933935
4054.64,0.631047,0.604287,2.19297,0.933779
4054.72,0.630231,0.605371,2.19521,0.933623
4054.79,0.629375,0.606422,2.19745,0.933467
4054.86,0.62848,0.607482,2.1997,0.933311
4054.94,0.627547,0.608507,2.20194,0.933155
4055.01,0.626577,0.609427,2.20427,0.932999
4055.08,0.625573,0.610128,2.20703,0.932843
4055.16,0.624536,0.610537,2.20979,0.932688
4055.23,0.623469,0.61073,2.21325,0.932532
4055.31,0.622375,0.610877,2.21764,0.932376
4055.38,0.621262,0.611102,2.22204,0.932221
4055.45,0.620134,0.611446,2.22646,0.932065
4055.53,0.618998,0.611936,2.23089,0.93191
4055.6,0.61786,0.612516,2.23533,0.931754
4055.67,0.616724,0.613089,2.23978,0.931599
4055.75,0.615596,0.613609,2.24425,0.931444
4055.82,0.614483,0.614052,2.24874,0.931289
4055.9,0.613389,0.614393,2.25323,0.931133
4055.97,0.612321,0.614606,2.25774,0.930978
4056.04,0.611285,0.614738,2.26211,0.930823
4056.12,0.610286,0.614852,2.26637,0.930668
4056.19,0.609328,0.615001,2.27065,0.930513
4056.26,0.608416,0.61522,2.27342,0.930358
4056.34,0.607549,0.615523,2.27597,0.930203
4056.41,0.606724,0.615854,2.27852,0.930048
4056.49,0.605939,0.616094,2.28108,0.929894
4056.56,0.605191,0.61616,2.28364,0.929739
4056.63,0.604478,0.616109,2.28621,0.929584
4056.71,0.603798,0.616012,2.28878,0.92943
4056.78,0.603149,0.615921,2.29135,0.929275
4056.85,0.602528,0.615939,2.29393,0.929121
4056.93,0.601934,0.616166,2.29651,0.928967
4057.0,0.601363,0.616519,2.2991,0.928812
4057.08,0.600815,0.616834,2.3017,0.928658
4057.15,0.600285,0.617054,2.30431,0.928504
4057.22,0.599773,0.617203,2.30699,0.92835
4057.3,0.599276,0.61728,2.30986,0.928196
4057.37,0.598792,0.617292,2.31274,0.928042
4057.44,0.59832,0.617335,2.31562,0.927888
4057.52,0.597858,0.617483,2.31851,0.927734
4057.59,0.597403,0.617688,2.32141,0.92758
4057.67,0.596954,0.617869,2.32431,0.927426
4057.74,0.59651,0.618014,2.32721,0.927273
4057.81,0.596067,0.618146,2.33012,0.927119
4057.89,0.595626,0.618272,2.33304,0.926966
4057.96,0.595183,0.61841,2.33596,0.926812
4058.03,0.594737,0.618569,2.33888,0.926659
4058.11,0.594285,0.618722,2.34182,0.926506
4058.18,0.593827,0.618836,2.34475,0.926352
4058.26,0.593361,0.618947,2.34588,0.926199
4058.33,0.592886,0.619106,2.34642,0.926046
4058.4,0.592404,0.619304,2.34694,0.925893
4058.48,0.591917,0.619526,2.34727,0.92574
4058.55,0.591427,0.619767,2.3476,0.925587
4058.62,0.590935,0.619989,2.34793,0.925435
4058.7,0.590442,0.62014,2.34826,0.925282
4058.77,0.589951,0.620204,2.34859,0.925129
4058.85,0.589464,0.620191,2.34893,0.924977
4058.92,0.588981,0.620093,2.34926,0.924825
4058.99,0.588505,0.619937,2.34959,0.924672
4059.07,0.588038,0.619765,2.34992,0.92452
4059.14,0.58758,0.619603,2.35025,0.924368
4059.21,0.587135,0.619453,2.35095,0.924216
4059.29,0.586702,0.61933,2.35308,0.924064
4059.36,0.586283,0.619232,2.35522,0.923912
4059.44,0.585878,0.619111,2.35756,0.92376
4059.51,0.585486,0.618924,2.36012,0.923608
4059.58,0.585107,0.618648,2.36268,0.923457
4059.66,0.58474,0.618295,2.36525,0.923305
4059.73,0.584386,0.617871,2.36782,0.923154
4059.81,0.584044,0.617406,2.3704,0.923002
4059.88,0.583715,0.616945,2.37298,0.922851
4059.95,0.583397,0.616538,2.37557,0.9227
4060.03,0.58309,0.616172,2.37815,0.922549
4060.1,0.582794,0.615832,2.38075,0.922398
4060.17,0.58251,0.615478,2.38335,0.922247
4060.25,0.582236,0.615037,2.38517,0.922096
4060.32,0.581972,0.614425,2.3866,0.921945
4060.4,0.581718,0.613681,2.38802,0.921794
4060.47,0.581472,0.612907,2.38897,0.921644
4060.54,0.581234,0.612203,2.38989,0.921493
4060.62,0.581001,0.611624,2.39082,0.921343
4060.69,0.580774,0.611191,2.39174,0.921193
4060.77,0.580551,0.610827,2.39266,0.921043
4060.84,0.580331,0.610375,2.39359,0.920893
4060.91,0.580113,0.609751,2.39452,0.920743
4060.99,0.579896,0.608968,2.39544,0.920593
4061.06,0.579678,0.608075,2.39637,0.920443
4061.13,0.579459,0.607103,2.3973,0.920293
4061.21,0.579238,0.606129,2.39817,0.920144
4061.28,0.579013,0.605191,2.39864,0.919994
4061.36,0.578784,0.604259,2.3991,0.919845
4061.43,0.57855,0.603298,2.39943,0.919696
4061.5,0.57831,0.602312,2.39956,0.919547
4061.58,0.578064,0.601308,2.3997,0.919398
4061.65,0.577811,0.600296,2.39984,0.919249
4061.73,0.577551,0.599326,2.39997,0.9191
4061.8,0.577282,0.598408,2.40011,0.918951
4061.87,0.577005,0.597516,2.40025,0.918803
4061.95,0.576719,0.596645,2.40038,0.918654
4062.02,0.576423,0.595808,2.40052,0.918506
4062.09,0.576117,0.594988,2.40066,0.918358
4062.17,0.5758,0.594155,2.40079,0.918209
4062.24,0.575472,0.593328,2.40125,0.918061
4062.32,0.575131,0.592528,2.40194,0.917913
4062.39,0.574777,0.591766,2.40264,0.917766
4062.46,0.574409,0.591061,2.40385,0.917618
4062.54,0.574025,0.590443,2.40515,0.91747
4062.61,0.573624,0.589869,2.40646,0.917323
4062.69,0.573203,0.589276,2.40776,0.917176
4062.76,0.57276,0.58863,2.40907,0.917028
4062.83,0.572295,0.587924,2.41037,0.916881
4062.91,0.571806,0.587149,2.41168,0.916734
4062.98,0.571291,0.586336,2.41299,0.916587
4063.05,0.570749,0.585579,2.4143,0.916441
4063.13,0.570177,0.584936,2.41561,0.916294
4063.2,0.569574,0.584398,2.41693,0.916147
4063.28,0.568936,0.583925,2.41867,0.916001
4063.35,0.568267,0.583491,2.42042,0.915855
4063.42,0.567568,0.583083,2.42241,0.915709
4063.5,0.566846,0.582768,2.4249,0.915563
4063.57,0.566111,0.58279,2.42741,0.915417
4063.65,0.565377,0.582321,2.42991,0.915271
4063.72,0.564652,0.581929,2.43242,0.915125
4063.79,0.563948,0.58161,2.43494,0.91498
4063.87,0.563275,0.581322,2.43745,0.914834
4063.94,0.562643,0.580999,2.43998,0.914689
4064.01,0.562063,0.580641,2.4425,0.914544
4064.09,0.561545,0.580234,2.44503,0.914399
4064.16,0.5611,0.579787,2.44757,0.914254
4064.24,0.56074,0.579376,2.44965,0.914109
4064.31,0.560473,0.57907,2.45128,0.913965
4064.38,0.560308,0.578867,2.45291,0.91382
4064.46,0.560247,0.578742,2.45238,0.913676
4064.53,0.560288,0.578699,2.45127,0.913532
4064.61,0.560419,0.578704,2.45016,0.913388
4064.68,0.560633,0.578718,2.44905,0.913244
4064.75,0.56092,0.578748,2.44795,0.9131
4064.83,0.561274,0.578838,2.44684,0.912956
4064.9,0.561686,0.578993,2.44573,0.912813
4064.98,0.562149,0.579213,2.44463,0.912669
4065.05,0.562656,0.579487,2.44352,0.912526
4065.12,0.563196,0.579782,2.44242,0.912383
4065.2,0.563764,0.580068,2.44132,0.91224
4065.27,0.56435,0.580349,2.43993,0.912097
4065.35,0.564947,0.580667,2.43854,0.911955
4065.42,0.565549,0.581061,2.43665,0.911812
4065.49,0.566151,0.58159,2.43336,0.91167
4065.57,0.566756,0.582275,2.43007,0.911527
4065.64,0.567366,0.583057,2.42679,0.911385
4065.71,0.567983,0.583833,2.42352,0.911243
4065.79,0.568608,0.584566,2.42025,0.911101
4065.86,0.569245,0.585295,2.41699,0.91096
4065.94,0.569894,0.58607,2.41374,0.910818
4066.01,0.570557,0.58695,2.41049,0.910677
4066.08,0.571237,0.588008,2.40725,0.910536
4066.16,0.571934,0.589278,2.40402,0.910394
4066.23,0.572652,0.590634,2.4008,0.910253
4066.31,0.573393,0.591947,2.39761,0.910113
4066.38,0.574157,0.593145,2.39442,0.909972
4066.45,0.574946,0.594238,2.39234,0.909832
4066.53,0.575758,0.595252,2.39068,0.909691
4066.6,0.57659,0.596256,2.38902,0.909551
4066.68,0.577436,0.597301,2.38737,0.909411
4066.75,0.578294,0.598395,2.38571,0.909271
4066.82,0.579159,0.599507,2.38406,0.909131
4066.9,0.580026,0.600576,2.38241,0.908992
4066.97,0.580893,0.601569,2.38076,0.908852
4067.05,0.581754,0.602529,2.37911,0.908713
4067.12,0.582606,0.603533,2.37746,0.908574
4067.19,0.583445,0.604606,2.37581,0.908435
4067.27,0.584267,0.605742,2.37417,0.908296
4067.34,0.585068,0.606934,2.37253,0.908158
4067.42,0.585843,0.608121,2.37087,0.908019
4067.49,0.586589,0.609243,2.36916,0.907881
4067.56,0.587307,0.610276,2.36746,0.907743
4067.64,0.587998,0.611246,2.36575,0.907605
4067.71,0.588663,0.612177,2.36404,0.907467
4067.79,0.589302,0.613086,2.36233,0.907329
4067.86,0.589918,0.613942,2.36062,0.907192
4067.93,0.590512,0.61468,2.35891,0.907055
4068.01,0.591084,0.615284,2.35721,0.906918
4068.08,0.591636,0.615761,2.3555,0.906781
4068.15,0.59217,0.616127,2.3538,0.906644
4068.23,0.592686,0.616451,2.3521,0.906507
4068.3,0.593185,0.616832,2.35041,0.906371
4068.38,0.59367,0.617292,2.34871,0.906234
4068.45,0.59414,0.617753,2.34695,0.906098
4068.52,0.594598,0.618142,2.34516,0.905962
4068.6,0.595043,0.618435,2.34336,0.905826
4068.67,0.595477,0.618622,2.34155,0.905691
4068.75,0.5959,0.618706,2.33973,0.905555
4068.82,0.596314,0.618748,2.33792,0.90542
4068.89,0.596718,0.618811,2.3361,0.905285
4068.97,0.597113,0.618894,2.33429,0.90515
4069.04,0.597501,0.61892,2.33248,0.905015
4069.12,0.597881,0.618846,2.33068,0.904881
4069.19,0.598255,0.61868,2.32887,0.904746
4069.26,0.598622,0.618454,2.32707,0.904612
4069.34,0.598985,0.618183,2.32527,0.904478
4069.41,0.599343,0.617887,2.32359,0.904344
4069.49,0.599698,0.617528,2.32244,0.90421
4069.56,0.600047,0.617067,2.3213,0.904077
4069.63,0.600388,0.616543,2.32032,0.903944
4069.71,0.600717,0.616019,2.31953,0.90381
4069.78,0.60103,0.615548,2.31873,0.903678
4069.86,0.601322,0.615187,2.31793,0.903545
4069.93,0.60159,0.615019,2.31714,0.903412
4070.0,0.601829,0.614971,2.31635,0.90328
4070.08,0.602035,0.614924,2.31555,0.903148
4070.15,0.602205,0.614819,2.31476,0.903015
4070.23,0.602334,0.614652,2.31396,0.902884
4070.3,0.602419,0.614394,2.31317,0.902752
4070.37,0.602454,0.614062,2.31238,0.902621
4070.45,0.602434,0.613739,2.31222,0.902489
4070.52,0.602359,0.613462,2.3124,0.902358
4070.6,0.60223,0.613209,2.31258,0.902227
4070.67,0.602049,0.612946,2.31358,0.902097
4070.74,0.601824,0.612672,2.31461,0.901966
4070.82,0.601562,0.612384,2.31565,0.901836
4070.89,0.601271,0.612096,2.31669,0.901706
4070.97,0.600957,0.611822,2.31772,0.901576
4071.04,0.600626,0.611571,2.31876,0.901446
4071.11,0.600286,0.611348,2.3198,0.901316
4071.19,0.599943,0.611129,2.32084,0.901187
4071.26,0.599604,0.610873,2.32188,0.901058
4071.34,0.599275,0.610551,2.32293,0.900929
4071.41,0.598964,0.610188,2.32384,0.9008
4071.48,0.598678,0.609804,2.32397,0.900671
4071.56,0.598422,0.609405,2.32411,0.900543
4071.63,0.5982,0.609029,2.32366,0.900415
4071.71,0.598014,0.608714,2.32248,0.900287
4071.78,0.597865,0.608461,2.3213,0.900159
4071.85,0.597755,0.608231,2.32011,0.900032
4071.93,0.597684,0.608017,2.31893,0.899904
4072.0,0.597653,0.607792,2.31775,0.899777
4072.08,0.597665,0.607531,2.31658,0.89965
4072.15,0.597719,0.607229,2.3154,0.899523
4072.23,0.597817,0.606909,2.31422,0.899397
4072.3,0.59796,0.606592,2.31305,0.89927
4072.37,0.598149,0.606283,2.31187,0.899144
4072.45,0.598388,0.605956,2.31072,0.899018
4072.52,0.598675,0.605539,2.30959,0.898893
4072.6,0.599009,0.605033,2.30846,0.898767
4072.67,0.599386,0.604493,2.30743,0.898642
4072.74,0.599798,0.603954,2.30641,0.898517
4072.82,0.600233,0.603443,2.30538,0.898392
4072.89,0.600681,0.603021,2.30436,0.898267
4072.97,0.601131,0.602712,2.30334,0.898143
4073.04,0.601574,0.602428,2.30231,0.898018
4073.11,0.601999,0.602096,2.30129,0.897894
4073.19,0.602397,0.601704,2.30027,0.897771
4073.26,0.602758,0.601258,2.29925,0.897647
4073.34,0.603071,0.600774,2.29823,0.897524
4073.41,0.603325,0.600283,2.29727,0.8974
4073.48,0.60351,0.599794,2.29669,0.897277
4073.56,0.603619,0.599285,2.2961,0.897155
4073.63,0.603642,0.598734,2.29653,0.897032
4073.71,0.603581,0.598113,2.29828,0.89691
4073.78,0.603441,0.597409,2.30004,0.896788
4073.85,0.603231,0.596659,2.30181,0.896666
4073.93,0.602959,0.595903,2.30357,0.896544
4074.0,0.602631,0.595161,2.30534,0.896423
4074.08,0.602253,0.594448,2.3071,0.896302
4074.15,0.601832,0.593794,2.30887,0.896181
4074.22,0.601376,0.593178,2.31065,0.89606
4074.3,0.600891,0.592559,2.31242,0.895939
4074.37,0.600384,0.591914,2.3142,0.895819
4074.45,0.599862,0.591246,2.31597,0.895699
4074.52,0.599333,0.590533,2.31775,0.895579
4074.6,0.598802,0.589787,2.31952,0.895459
4074.67,0.598276,0.589065,2.32111,0.89534
4074.74,0.597756,0.588427,2.32268,0.895221
4074.82,0.597243,0.587857,2.32425,0.895102
4074.89,0.596737,0.587352,2.32583,0.894983
4074.97,0.596239,0.586911,2.32741,0.894865
4075.04,0.595749,0.586469,2.32899,0.894746
4075.11,0.595267,0.585964,2.33057,0.894628
4075.19,0.594794,0.585409,2.33215,0.894511
4075.26,0.594331,0.584841,2.33374,0.894393
4075.34,0.593878,0.584246,2.33532,0.894276
4075.41,0.593436,0.583667,2.33691,0.894159
4075.48,0.593004,0.583124,2.3385,0.894042
4075.56,0.592584,0.582585,2.34009,0.893925
4075.63,0.592175,0.582031,2.34153,0.893809
4075.71,0.591779,0.581506,2.34277,0.893693
4075.78,0.591395,0.581019,2.34401,0.893577
4075.85,0.591024,0.580568,2.34522,0.893461
4075.93,0.590666,0.58023,2.34642,0.893346
4076.0,0.590321,0.580004,2.34763,0.893231
4076.08,0.589989,0.579804,2.34883,0.893116
4076.15,0.58967,0.579542,2.35004,0.893001
4076.23,0.589365,0.57922,2.35124,0.892886
4076.3,0.589073,0.578785,2.35245,0.892772
4076.37,0.588796,0.578245,2.35366,0.892658
4076.45,0.588532,0.577723,2.35487,0.892545
4076.52,0.588283,0.577355,2.35608,0.892431
4076.6,0.588048,0.577143,2.35729,0.892318
4076.67,0.587827,0.577047,2.35864,0.892205
4076.74,0.587622,0.577056,2.36,0.892092
4076.82,0.587432,0.577089,2.36138,0.89198
4076.89,0.587257,0.577051,2.36279,0.891867
4076.97,0.5871,0.576902,2.3642,0.891755
4077.04,0.586959,0.576703,2.36562,0.891644
4077.11,0.586836,0.576457,2.36703,0.891532
4077.19,0.58673,0.576205,2.36845,0.891421
4077.26,0.586643,0.576053,2.36986,0.89131
4077.34,0.586576,0.576104,2.37128,0.891199
4077.41,0.586528,0.576308,2.3727,0.891089
4077.49,0.5865,0.576586,2.37412,0.890978
4077.56,0.586493,0.576896,2.37555,0.890868
4077.63,0.586506,0.577171,2.37645,0.890759
4077.71,0.586541,0.577354,2.37674,0.890649
4077.78,0.586601,0.57749,2.37703,0.89054
4077.86,0.586688,0.577714,2.37682,0.890431
4077.93,0.586805,0.578116,2.37645,0.890322
4078.0,0.586957,0.578665,2.37609,0.890214
4078.08,0.587147,0.579276,2.37572,0.890106
4078.15,0.587378,0.579883,2.37535,0.889998
4078.23,0.587654,0.580459,2.37498,0.88989
4078.3,0.587979,0.58101,2.37462,0.889783
4078.38,0.588355,0.581579,2.37425,0.889676
4078.45,0.588788,0.582212,2.37388,0.889569
4078.52,0.58928,0.582937,2.37351,0.889462
4078.6,0.589835,0.583727,2.37315,0.889356
4078.67,0.590456,0.584556,2.37061,0.88925
4078.75,0.591147,0.585409,2.368,0.889144
4078.82,0.591912,0.586308,2.3648,0.889038
4078.89,0.592754,0.587278,2.35998,0.888933
4078.97,0.593678,0.588337,2.35518,0.888828
4079.04,0.594686,0.589478,2.35039,0.888723
4079.12,0.595784,0.590665,2.34562,0.888619
4079.19,0.596975,0.591882,2.34086,0.888514
4079.26,0.598262,0.593133,2.33611,0.888411
4079.34,0.59965,0.594437,2.33138,0.888307
4079.41,0.601141,0.595775,2.32667,0.888203
4079.49,0.60274,0.597141,2.32196,0.8881
4079.56,0.604452,0.598532,2.31728,0.887997
4079.64,0.606281,0.599928,2.31185,0.887895
4079.71,0.60823,0.601325,2.30565,0.887793
4079.78,0.610296,0.602723,2.29948,0.887691
4079.86,0.612476,0.604125,2.29125,0.887589
4079.93,0.614756,0.605514,2.28251,0.887487
4080.01,0.617121,0.606919,2.27382,0.887386
4080.08,0.619555,0.608328,2.26518,0.887285
4080.16,0.622043,0.609716,2.25658,0.887185
4080.23,0.624571,0.611096,2.24804,0.887084
4080.3,0.627125,0.612508,2.23954,0.886984
4080.38,0.629691,0.613947,2.23109,0.886884
4080.45,0.632253,0.615415,2.22269,0.886785
4080.53,0.634797,0.616977,2.21433,0.886686
4080.6,0.637309,0.61861,2.20603,0.886587
4080.67,0.639773,0.620213,2.19848,0.886488
4080.75,0.642176,0.621688,2.19097,0.886389
4080.82,0.644506,0.623014,2.18422,0.886291
4080.9,0.646754,0.624139,2.17913,0.886194
4080.97,0.648914,0.625088,2.17406,0.886096
4081.05,0.650984,0.62602,2.169,0.885999
4081.12,0.652958,0.627107,2.16396,0.885902
4081.19,0.654831,0.62833,2.15893,0.885805
4081.27,0.656598,0.629579,2.15393,0.885709
4081.34,0.658256,0.630752,2.14894,0.885613
4081.42,0.659798,0.631798,2.14397,0.885517
4081.49,0.66122,0.632656,2.13901,0.885421
4081.56,0.662517,0.633352,2.13408,0.885326
4081.64,0.663684,0.634077,2.12947,0.885231
4081.71,0.664717,0.634997,2.12516,0.885137
4081.79,0.665612,0.636077,2.12086,0.885042
4081.86,0.666364,0.637186,2.12133,0.884948
4081.94,0.66698,0.638277,2.12277,0.884854
4082.01,0.667464,0.639274,2.12421,0.884761
4082.08,0.667824,0.640101,2.12566,0.884668
4082.16,0.668066,0.64074,2.1271,0.884575
4082.23,0.668196,0.641286,2.12855,0.884482
4082.31,0.66822,0.641746,2.12999,0.88439
4082.38,0.668145,0.642127,2.13144,0.884298
4082.46,0.667977,0.642501,2.13289,0.884206
4082.53,0.667721,0.64296,2.13434,0.884115
4082.6,0.667384,0.643503,2.1358,0.884024
4082.68,0.666973,0.644122,2.13725,0.883933
4082.75,0.666494,0.644814,2.13871,0.883843
4082.83,0.665952,0.645485,2.14089,0.883753
4082.9,0.665355,0.646001,2.14439,0.883663
4082.98,0.664712,0.646329,2.1479,0.883573
4083.05,0.664032,0.646576,2.15149,0.883484
4083.12,0.663323,0.646815,2.15511,0.883395
4083.2,0.662594,0.647087,2.15874,0.883306
4083.27,0.661855,0.647445,2.16238,0.883218
4083.35,0.661113,0.647936,2.16604,0.88313
4083.42,0.660379,0.648472,2.1697,0.883042
4083.49,0.65966,0.648986,2.17337,0.882955
4083.57,0.658967,0.649467,2.17705,0.882868
4083.64,0.658307,0.649892,2.18073,0.882781
4083.72,0.657689,0.65022,2.18443,0.882694
4083.79,0.657124,0.650493,2.18814,0.882608
4083.87,0.656619,0.65076,2.18919,0.882522
4083.94,0.656181,0.651002,2.1899,0.882437
4084.01,0.655813,0.651226,2.19048,0.882352
4084.09,0.655519,0.651441,2.19051,0.882267
4084.16,0.655302,0.651664,2.19054,0.882182
4084.24,0.655167,0.65194,2.19057,0.882098
4084.31,0.655115,0.652368,2.1906,0.882014
4084.39,0.655151,0.652948,2.19063,0.88193
4084.46,0.655278,0.653612,2.19066,0.881847
4084.53,0.655499,0.654308,2.19069,0.881764
4084.61,0.655817,0.654992,2.19072,0.881681
4084.68,0.656235,0.655609,2.19075,0.881599
4084.76,0.656759,0.656148,2.19079,0.881517
