Wavelength,Spectra,Best_Fitting_Model,Non_parm_Extinction_Curve,Non_param_Adjusted_Continuum
4050.07,0.676856,0.294912,0.0,0.841151
4050.15,0.679433,0.305982,0.0,0.841131
4050.22,0.681749,0.317633,0.0,0.841111
4050.29,0.683728,0.329587,0.0,0.841091
4050.37,0.685395,0.341217,0.0,0.841071
4050.44,0.686781,0.352118,0.0,0.841051
4050.52,0.687915,0.36249,0.0,0.841031
4050.59,0.688822,0.372954,0.0,0.841012
4050.66,0.689526,0.384024,0.0,0.840992
4050.74,0.690053,0.395679,0.0,0.840972
4050.81,0.69043,0.407447,0.0,0.840952
4050.88,0.690684,0.418825,0.0,0.840932
4050.96,0.690841,0.429566,0.0,0.840912
4051.03,0.690926,0.439711,0.0,0.840892
4051.1,0.690967,0.44948,0.0,0.840872
4051.18,0.690992,0.459155,0.0,0.840852
4051.25,0.69103,0.469002,0.0,0.840832
4051.33,0.691098,0.479156,0.0,0.840812
4051.4,0.691208,0.489513,0.0,0.840793
4051.47,0.691369,0.499677,0.0,0.840773
4051.55,0.691585,0.509088,0.0,0.840753
4051.62,0.691856,0.517349,0.0,0.840733
4051.69,0.692183,0.524592,0.0,0.840713
4051.77,0.692569,0.531656,0.0,0.840693
4051.84,0.693017,0.540302,0.0,0.840673
4051.91,0.69353,0.554221,0.283102,0.840654
4051.99,0.69411,0.561701,0.283033,0.840634
4052.06,0.694758,0.567237,0.282963,0.840614
4052.14,0.695478,0.572615,0.282894,0.840594
4052.21,0.696277,0.578585,0.282801,0.840574
4052.28,0.697155,0.5852,0.282555,0.840554
4052.36,0.698104,0.592016,0.282308,0.840535
4052.43,0.699113,0.598492,0.281987,0.840515
4052.5,0.700164,0.604334,0.281563,0.840495
4052.58,0.701231,0.609529,0.28114,0.840475
4052.65,0.702288,0.614215,0.280717,0.840456
4052.73,0.703312,0.618537,0.280296,0.840436
4052.8,0.704277,0.622599,0.279876,0.840416
4052.87,0.705162,0.626452,0.279456,0.840397
4052.95,0.705943,0.630118,0.279037,0.840377
4053.02,0.706596,0.633598,0.27862,0.840357
4053.09,0.707098,0.636898,0.278203,0.840337
4053.17,0.707422,0.640021,0.277787,0.840318
4053.24,0.70754,0.642964,0.277521,0.840298
4053.31,0.707436,0.645718,0.277371,0.840279
4053.39,0.707101,0.648279,0.277222,0.840259
4053.46,0.706529,0.650647,0.277415,0.840239
4053.54,0.705734,0.652804,0.277671,0.84022
4053.61,0.704737,0.654743,0.277927,0.8402
4053.68,0.703557,0.656469,0.278184,0.840181
4053.76,0.702212,0.657982,0.27844,0.840161
4053.83,0.700715,0.659247,0.278698,0.840142
4053.9,0.699085,0.660238,0.278955,0.840122
4053.98,0.697336,0.660951,0.279213,0.840103
4054.05,0.695487,0.661419,0.279471,0.840083
4054.13,0.693554,0.661685,0.27973,0.840064
4054.2,0.691555,0.661809,0.279989,0.840044
4054.27,0.689505,0.661832,0.28037,0.840025
4054.35,0.687421,0.661763,0.280754,0.840006
4054.42,0.685316,0.661581,0.281221,0.839986
4054.49,0.683201,0.66128,0.281905,0.839967
4054.57,0.681082,0.660863,0.282592,0.839948
4054.64,0.678966,0.660336,0.283281,0.839928
4054.72,0.676858,0.659724,0.283973,0.839909
4054.79,0.674765,0.65906,0.284668,0.83989
4054.86,0.672694,0.658354,0.285365,0.83987
4054.94,0.670652,0.657601,0.286064,0.839851
4055.01,0.668646,0.656806,0.286767,0.839832
4055.08,0.666682,0.65597,0.287471,0.839813
4055.16,0.664767,0.655084,0.288179,0.839794
4055.23,0.662908,0.654151,0.288874,0.839774
4055.31,0.661111,0.65318,0.289552,0.839755
4055.38,0.659382,0.652172,0.290232,0.839736
4055.45,0.657726,0.651133,0.290807,0.839717
4055.53,0.656147,0.650103,0.291342,0.839698
4055.6,0.654644,0.649124,0.291877,0.839679
4055.67,0.653218,0.648219,0.292414,0.83966
4055.75,0.651871,0.647396,0.292953,0.839641
4055.82,0.650603,0.646635,0.293493,0.839622
4055.9,0.649416,0.645893,0.294035,0.839603
4055.97,0.64831,0.645123,0.294578,0.839584
4056.04,0.647287,0.644312,0.295123,0.839566
4056.12,0.646347,0.643473,0.295669,0.839547
4056.19,0.645492,0.642639,0.296216,0.839528
4056.26,0.644724,0.641849,0.296731,0.839509
4056.34,0.644042,0.641135,0.297241,0.83949
4056.41,0.643446,0.640493,0.297685,0.839472
4056.49,0.642935,0.63988,0.297759,0.839453
4056.56,0.642498,0.639255,0.297832,0.839434
4056.63,0.642123,0.638624,0.297906,0.839416
4056.71,0.6418,0.638011,0.297979,0.839397
4056.78,0.641516,0.637442,0.298052,0.839378
4056.85,0.641262,0.636962,0.298126,0.83936
4056.93,0.641027,0.636611,0.298199,0.839341
4057.0,0.640799,0.636351,0.298273,0.839323
4057.08,0.640568,0.636108,0.298347,0.839304
4057.15,0.640322,0.635844,0.29842,0.839286
4057.22,0.640051,0.635571,0.298494,0.839268
4057.3,0.639743,0.635307,0.298568,0.839249
4057.37,0.639388,0.635091,0.298641,0.839231
4057.44,0.638975,0.634985,0.298768,0.839213
4057.52,0.638507,0.635017,0.29893,0.839194
4057.59,0.638,0.635151,0.299093,0.839176
4057.67,0.637468,0.635323,0.299258,0.839158
4057.74,0.636927,0.635501,0.299423,0.83914
4057.81,0.636392,0.635681,0.299588,0.839122
4057.89,0.635879,0.63588,0.299753,0.839104
4057.96,0.635403,0.636135,0.299918,0.839085
4058.03,0.634979,0.636492,0.300084,0.839067
4058.11,0.634623,0.636974,0.30025,0.839049
4058.18,0.63435,0.637581,0.300415,0.839032
4058.26,0.634174,0.638311,0.300581,0.839014
4058.33,0.634112,0.639155,0.300747,0.838996
4058.4,0.634183,0.64008,0.300907,0.838978
4058.48,0.634396,0.641059,0.300924,0.83896
4058.55,0.63474,0.642075,0.300941,0.838942
4058.62,0.635193,0.643113,0.30095,0.838925
4058.7,0.635736,0.644161,0.300945,0.838907
4058.77,0.636346,0.645223,0.300939,0.838889
4058.85,0.636998,0.646313,0.300934,0.838872
4058.92,0.63767,0.647432,0.300928,0.838854
4058.99,0.638338,0.648593,0.300923,0.838836
4059.07,0.638981,0.649805,0.300917,0.838819
4059.14,0.639576,0.651066,0.300912,0.838802
4059.21,0.6401,0.652362,0.300906,0.838784
4059.29,0.640532,0.653687,0.300901,0.838767
4059.36,0.640845,0.655021,0.300895,0.838749
4059.44,0.641013,0.656336,0.301091,0.838732
4059.51,0.641027,0.657612,0.301496,0.838715
4059.58,0.640895,0.658835,0.301901,0.838698
4059.66,0.640627,0.659998,0.302409,0.838681
4059.73,0.640239,0.661096,0.302946,0.838663
4059.81,0.639749,0.662139,0.303484,0.838646
4059.88,0.639177,0.66314,0.304024,0.838629
4059.95,0.638539,0.664108,0.304566,0.838612
4060.03,0.637852,0.665034,0.305109,0.838595
4060.1,0.637133,0.665899,0.305653,0.838578
4060.17,0.636397,0.666658,0.306199,0.838562
4060.25,0.635662,0.667255,0.306746,0.838545
4060.32,0.634946,0.667643,0.307295,0.838528
4060.4,0.634268,0.667827,0.307845,0.838511
4060.47,0.633647,0.667843,0.308277,0.838495
4060.54,0.633084,0.667735,0.308702,0.838478
4060.62,0.632577,0.667538,0.309112,0.838461
4060.69,0.632121,0.667274,0.30947,0.838445
4060.77,0.631705,0.666929,0.309829,0.838428
4060.84,0.631315,0.666454,0.310189,0.838412
4060.91,0.630939,0.66582,0.310549,0.838396
4060.99,0.630568,0.665027,0.31091,0.838379
4061.06,0.630191,0.664094,0.311271,0.838363
4061.13,0.629797,0.66304,0.311633,0.838347
4061.21,0.629375,0.6619,0.311996,0.838331
4061.28,0.628916,0.660688,0.312359,0.838314
4061.36,0.628406,0.659388,0.312723,0.838298
4061.43,0.627833,0.657983,0.313099,0.838282
4061.5,0.62719,0.656469,0.313493,0.838266
4061.58,0.626472,0.654856,0.313888,0.83825
4061.65,0.625679,0.653162,0.314301,0.838234
4061.73,0.624811,0.651429,0.314722,0.838219
4061.8,0.623876,0.649678,0.315143,0.838203
4061.87,0.622878,0.64791,0.315566,0.838187
4061.95,0.621822,0.646124,0.31599,0.838171
4062.02,0.62071,0.644321,0.316414,0.838156
4062.09,0.619548,0.642491,0.31684,0.83814
4062.17,0.618338,0.640622,0.317266,0.838125
4062.24,0.617086,0.63872,0.317693,0.838109
4062.32,0.615796,0.636796,0.318121,0.838094
4062.39,0.614471,0.634862,0.31855,0.838078
4062.46,0.613116,0.632936,0.318947,0.838063
4062.54,0.611734,0.631047,0.31934,0.838048
4062.61,0.610334,0.629204,0.319725,0.838033
4062.69,0.608921,0.627407,0.320069,0.838018
4062.76,0.607503,0.625658,0.320413,0.838003
4062.83,0.60609,0.623965,0.320757,0.837988
4062.91,0.60469,0.62233,0.321102,0.837973
4062.98,0.603311,0.620759,0.321448,0.837958
4063.05,0.601963,0.619269,0.321794,0.837943
4063.13,0.600652,0.61787,0.322141,0.837928
4063.2,0.599387,0.616544,0.322488,0.837913
4063.28,0.598178,0.615264,0.322836,0.837899
4063.35,0.597032,0.614011,0.323184,0.837884
4063.42,0.595959,0.612782,0.32351,0.837869
4063.5,0.594966,0.611584,0.323788,0.837855
4063.57,0.594059,0.610441,0.324066,0.837841
4063.65,0.593242,0.609382,0.324247,0.837826
4063.72,0.592513,0.608432,0.324367,0.837812
4063.79,0.591866,0.60759,0.324487,0.837798
4063.87,0.591294,0.60683,0.324607,0.837783
4063.94,0.590793,0.606122,0.324727,0.837769
4064.01,0.590359,0.605452,0.324847,0.837755
4064.09,0.589986,0.604808,0.324967,0.837741
4064.16,0.589671,0.604207,0.325087,0.837727
4064.24,0.589407,0.60369,0.325208,0.837713
4064.31,0.58919,0.603296,0.325328,0.8377
4064.38,0.589015,0.603028,0.325449,0.837686
4064.46,0.588876,0.602877,0.325637,0.837672
4064.53,0.58877,0.60283,0.325843,0.837659
4064.61,0.588694,0.602862,0.326079,0.837645
4064.68,0.588648,0.602949,0.326636,0.837632
4064.75,0.588642,0.603091,0.327196,0.837618
4064.83,0.588686,0.603304,0.327756,0.837605
4064.9,0.588788,0.603595,0.328318,0.837591
4064.98,0.588959,0.603968,0.328882,0.837578
4065.05,0.589208,0.604427,0.329447,0.837565
4065.12,0.589543,0.604967,0.330013,0.837552
4065.2,0.589973,0.605586,0.330581,0.837539
4065.27,0.590509,0.606294,0.331151,0.837526
4065.35,0.591159,0.607105,0.331722,0.837513
4065.42,0.591933,0.60803,0.33226,0.8375
4065.49,0.59284,0.609082,0.332703,0.837488
4065.57,0.593888,0.610255,0.333148,0.837475
4065.64,0.595084,0.611517,0.332756,0.837462
4065.71,0.596421,0.612826,0.331693,0.83745
4065.79,0.597881,0.614166,0.330635,0.837437
4065.86,0.599445,0.61555,0.329583,0.837425
4065.94,0.601094,0.616998,0.328535,0.837412
4066.01,0.602812,0.618544,0.327492,0.8374
4066.08,0.604581,0.620218,0.326454,0.837388
4066.16,0.606383,0.622033,0.325421,0.837376
4066.23,0.6082,0.623949,0.324393,0.837364
4066.31,0.610015,0.625917,0.32337,0.837352
4066.38,0.611809,0.627893,0.322351,0.83734
4066.45,0.613565,0.629857,0.321338,0.837328
4066.53,0.615265,0.631802,0.320329,0.837316
4066.6,0.616891,0.633739,0.319337,0.837305
4066.68,0.618429,0.635677,0.318796,0.837293
4066.75,0.619882,0.637618,0.318257,0.837282
4066.82,0.62126,0.639562,0.317724,0.83727
4066.9,0.622571,0.641497,0.317206,0.837259
4066.97,0.623823,0.64342,0.316689,0.837247
4067.05,0.625027,0.645352,0.316173,0.837236
4067.12,0.62619,0.647328,0.315658,0.837225
4067.19,0.627322,0.64936,0.315144,0.837214
4067.27,0.628433,0.651449,0.314632,0.837203
4067.34,0.629529,0.653576,0.314121,0.837192
4067.42,0.630621,0.655702,0.313611,0.837181
4067.49,0.631717,0.657785,0.313102,0.83717
4067.56,0.632828,0.659802,0.312595,0.83716
4067.64,0.633963,0.661749,0.312138,0.837149
4067.71,0.635123,0.663632,0.311729,0.837139
4067.79,0.636298,0.665462,0.311321,0.837128
4067.86,0.637478,0.667232,0.310929,0.837118
4067.93,0.638649,0.668913,0.310541,0.837107
4068.01,0.639799,0.670488,0.310153,0.837097
4068.08,0.640915,0.671945,0.309766,0.837087
4068.15,0.641982,0.673272,0.30938,0.837077
4068.23,0.642989,0.674471,0.308995,0.837067
4068.3,0.643922,0.675556,0.30861,0.837057
4068.38,0.64477,0.676516,0.308227,0.837047
4068.45,0.64552,0.677314,0.307843,0.837038
4068.52,0.646157,0.677921,0.307461,0.837028
4068.6,0.646667,0.678341,0.307079,0.837018
4068.67,0.647038,0.678594,0.307024,0.837009
4068.75,0.64727,0.67871,0.306975,0.837
4068.82,0.647368,0.678738,0.306962,0.83699
4068.89,0.64734,0.678713,0.307041,0.836981
4068.97,0.647197,0.678642,0.30712,0.836972
4069.04,0.64695,0.678495,0.307199,0.836963
4069.12,0.64661,0.678247,0.307278,0.836954
4069.19,0.646187,0.67789,0.307357,0.836945
4069.26,0.645692,0.677422,0.307436,0.836936
4069.34,0.645135,0.676844,0.307515,0.836927
4069.41,0.644526,0.676154,0.307594,0.836919
4069.49,0.643875,0.675334,0.307674,0.83691
4069.56,0.643194,0.674378,0.307753,0.836902
4069.63,0.642493,0.673318,0.307879,0.836893
4069.71,0.641781,0.672201,0.30806,0.836885
4069.78,0.641069,0.671069,0.30824,0.836877
4069.86,0.640365,0.669963,0.308472,0.836869
4069.93,0.639678,0.668918,0.308721,0.836861
4070.0,0.639018,0.667897,0.30897,0.836853
4070.08,0.638392,0.666842,0.309219,0.836845
4070.15,0.63781,0.665724,0.309468,0.836837
4070.23,0.63728,0.664548,0.309718,0.83683
4070.3,0.636812,0.663325,0.309968,0.836822
4070.37,0.636413,0.662085,0.310218,0.836815
4070.45,0.636092,0.660876,0.310469,0.836807
4070.52,0.635858,0.659721,0.31072,0.8368
4070.6,0.635724,0.658603,0.310971,0.836793
4070.67,0.635697,0.657493,0.311074,0.836786
4070.74,0.635779,0.656382,0.311169,0.836778
4070.82,0.635966,0.655271,0.311222,0.836772
4070.89,0.636252,0.654181,0.311145,0.836765
4070.97,0.636619,0.653133,0.311069,0.836758
4071.04,0.637051,0.65215,0.310993,0.836751
4071.11,0.637532,0.651233,0.310917,0.836745
4071.19,0.638047,0.650365,0.31084,0.836738
4071.26,0.638582,0.649512,0.310764,0.836732
4071.34,0.639121,0.648653,0.310688,0.836726
4071.41,0.639651,0.64779,0.310612,0.836719
4071.48,0.640155,0.646935,0.310536,0.836713
4071.56,0.640617,0.646103,0.31046,0.836707
4071.63,0.641022,0.645314,0.310347,0.836702
4071.71,0.641356,0.644585,0.310186,0.836696
4071.78,0.64161,0.643919,0.310026,0.83669
4071.85,0.641774,0.643309,0.309751,0.836684
4071.93,0.641847,0.642752,0.309437,0.836679
4072.0,0.641833,0.642246,0.309123,0.836674
4072.08,0.641733,0.641792,0.308809,0.836668
4072.15,0.64155,0.641388,0.308496,0.836663
4072.23,0.641284,0.64104,0.308183,0.836658
4072.3,0.640936,0.640752,0.307871,0.836653
4072.37,0.640508,0.640532,0.307559,0.836648
4072.45,0.640002,0.640375,0.307248,0.836643
4072.52,0.639417,0.640268,0.306937,0.836638
4072.6,0.638756,0.640211,0.306627,0.836634
4072.67,0.638017,0.640219,0.306452,0.836629
4072.74,0.637207,0.64029,0.306287,0.836625
4072.82,0.636331,0.640407,0.306238,0.836621
4072.89,0.635402,0.640566,0.306568,0.836616
4072.97,0.634447,0.640759,0.306898,0.836612
4073.04,0.633493,0.640957,0.307228,0.836608
4073.11,0.632566,0.641137,0.307559,0.836604
4073.19,0.631693,0.641311,0.307891,0.836601
4073.26,0.630899,0.641497,0.308223,0.836597
4073.34,0.630208,0.641716,0.308555,0.836593
4073.41,0.629647,0.641989,0.308888,0.83659
4073.48,0.629242,0.642323,0.309222,0.836586
4073.56,0.629019,0.642697,0.309556,0.836583
4073.63,0.629006,0.643074,0.309851,0.83658
4073.71,0.629226,0.643421,0.310095,0.836577
4073.78,0.629701,0.643706,0.310339,0.836574
4073.85,0.630448,0.643917,0.309971,0.836571
4073.93,0.63144,0.644068,0.309383,0.836568
4074.0,0.632633,0.644172,0.308796,0.836566
4074.08,0.63398,0.64424,0.308211,0.836563
4074.15,0.635438,0.64428,0.307627,0.836561
4074.22,0.636965,0.644283,0.307045,0.836558
4074.3,0.638518,0.644227,0.306465,0.836556
4074.37,0.640055,0.644085,0.305886,0.836554
4074.45,0.641531,0.643842,0.305309,0.836552
4074.52,0.642903,0.64348,0.304734,0.83655
4074.6,0.644129,0.642989,0.30416,0.836548
4074.67,0.645166,0.642381,0.303588,0.836547
4074.74,0.645969,0.641676,0.303017,0.836545
4074.82,0.646495,0.640887,0.302623,0.836544
4074.89,0.646719,0.640034,0.302802,0.836542
4074.97,0.646661,0.639141,0.30298,0.836541
4075.04,0.646346,0.638208,0.303172,0.83654
4075.11,0.645799,0.637225,0.303374,0.836539
4075.19,0.645046,0.636192,0.303576,0.836538
4075.26,0.644112,0.635109,0.303778,0.836537
4075.34,0.643024,0.633961,0.30398,0.836537
4075.41,0.641808,0.632754,0.304183,0.836536
4075.48,0.640488,0.631492,0.304386,0.836536
4075.56,0.639091,0.63016,0.304589,0.836536
4075.63,0.637641,0.628751,0.304793,0.836535
4075.71,0.636165,0.627282,0.304996,0.836535
4075.78,0.634691,0.625759,0.3052,0.836535
4075.85,0.633244,0.624189,0.305492,0.836535
4075.93,0.631836,0.622607,0.305816,0.836536
4076.0,0.630471,0.621028,0.306141,0.836536
4076.08,0.629153,0.619428,0.306489,0.836536
4076.15,0.627883,0.617776,0.306837,0.836537
4076.23,0.626661,0.61606,0.307186,0.836538
4076.3,0.625486,0.614262,0.307536,0.836539
4076.37,0.624362,0.612393,0.307886,0.83654
4076.45,0.623288,0.610514,0.308236,0.836541
4076.52,0.622266,0.608694,0.308588,0.836542
4076.6,0.621297,0.606966,0.308939,0.836543
4076.67,0.620382,0.605337,0.309292,0.836545
4076.74,0.619522,0.6038,0.309645,0.836546
4076.82,0.618717,0.602317,0.309968,0.836548
4076.89,0.617969,0.600844,0.310194,0.83655
4076.97,0.61728,0.599369,0.310421,0.836551
4077.04,0.61665,0.597916,0.31062,0.836553
4077.11,0.616081,0.596503,0.310795,0.836556
4077.19,0.615575,0.595159,0.31097,0.836558
4077.26,0.615132,0.593923,0.311145,0.83656
4077.34,0.614754,0.592832,0.311321,0.836563
4077.41,0.614444,0.591875,0.311496,0.836565
4077.49,0.614201,0.591031,0.311672,0.836568
4077.56,0.614028,0.590292,0.311848,0.836571
4077.63,0.613926,0.589654,0.312024,0.836574
4077.71,0.613895,0.589115,0.312201,0.836577
4077.78,0.61394,0.588695,0.312377,0.83658
4077.86,0.614061,0.588439,0.312423,0.836584
4077.93,0.614257,0.588375,0.312428,0.836587
4078.0,0.614525,0.588487,0.312425,0.836591
4078.08,0.614862,0.588739,0.312303,0.836595
4078.15,0.615262,0.589106,0.312182,0.836598
4078.23,0.615718,0.589587,0.31206,0.836602
4078.3,0.616224,0.590204,0.311939,0.836607
4078.38,0.616774,0.591006,0.311818,0.836611
4078.45,0.617363,0.592051,0.311697,0.836615
4078.52,0.617984,0.593374,0.311575,0.83662
4078.6,0.618633,0.594956,0.311454,0.836624
4078.67,0.619305,0.59675,0.311333,0.836629
4078.75,0.61999,0.598685,0.311213,0.836634
4078.82,0.620682,0.600695,0.311043,0.836639
4078.89,0.621377,0.602735,0.310741,0.836644
4078.97,0.622078,0.604796,0.310439,0.836649
4079.04,0.62279,0.606891,0.310008,0.836655
4079.12,0.623527,0.609034,0.309482,0.83666
4079.19,0.62431,0.611244,0.308957,0.836666
4079.26,0.625158,0.613536,0.308433,0.836672
4079.34,0.626091,0.615911,0.307911,0.836678
4079.41,0.627125,0.618364,0.30739,0.836684
4079.49,0.62828,0.620893,0.30687,0.83669
4079.56,0.629572,0.623491,0.306352,0.836696
4079.64,0.631018,0.62614,0.305835,0.836703
4079.71,0.632639,0.628825,0.305319,0.836709
4079.78,0.634456,0.631514,0.304804,0.836716
4079.86,0.636492,0.634179,0.304239,0.836723
4079.93,0.638751,0.636803,0.303662,0.83673
4080.01,0.641233,0.639407,0.303073,0.836737
4080.08,0.643925,0.642005,0.302353,0.836744
4080.16,0.646775,0.644608,0.301636,0.836751
4080.23,0.649727,0.647238,0.300922,0.836759
4080.3,0.652726,0.649907,0.30021,0.836767
4080.38,0.655723,0.652594,0.2995,0.836774
4080.45,0.658668,0.655269,0.298793,0.836782
4080.53,0.661513,0.657919,0.298088,0.83679
4080.6,0.664206,0.660508,0.297386,0.836798
4080.67,0.666697,0.662975,0.296687,0.836807
4080.75,0.668933,0.665275,0.29599,0.836815
4080.82,0.670859,0.667406,0.295323,0.836824
4080.9,0.672427,0.669376,0.294722,0.836833
4080.97,0.6736,0.671229,0.294123,0.836841
4081.05,0.674346,0.673053,0.293791,0.83685
4081.12,0.674682,0.674924,0.293628,0.83686
4081.19,0.67467,0.676827,0.293465,0.836869
4081.27,0.674366,0.678688,0.293302,0.836878
4081.34,0.673823,0.680428,0.293139,0.836888
4081.42,0.67309,0.681981,0.292977,0.836898
4081.49,0.672217,0.683307,0.292814,0.836907
4081.56,0.671257,0.684426,0.292652,0.836917
4081.64,0.670261,0.685432,0.29249,0.836927
4081.71,0.669281,0.686418,0.292328,0.836938
4081.79,0.66837,0.687403,0.292166,0.836948
4081.86,0.667579,0.688356,0.291999,0.836959
4081.94,0.666958,0.689244,0.291832,0.836969
4082.01,0.666559,0.690023,0.291645,0.83698
4082.08,0.666414,0.690645,0.291333,0.836991
4082.16,0.666513,0.691091,0.291021,0.837002
4082.23,0.666838,0.691377,0.290709,0.837014
4082.31,0.667373,0.691511,0.290398,0.837025
4082.38,0.668102,0.691501,0.290087,0.837037
4082.46,0.669009,0.691377,0.289777,0.837048
4082.53,0.670078,0.691174,0.289467,0.83706
4082.6,0.671292,0.690908,0.289158,0.837072
4082.68,0.672636,0.690586,0.28885,0.837084
4082.75,0.674092,0.690215,0.288541,0.837096
4082.83,0.675645,0.689775,0.288234,0.837109
4082.9,0.67728,0.689232,0.287926,0.837121
4082.98,0.678978,0.688581,0.28762,0.837134
4083.05,0.680725,0.687861,0.287234,0.837147
4083.12,0.682505,0.687102,0.28681,0.83716
4083.2,0.684308,0.686315,0.286386,0.837173
4083.27,0.68612,0.685512,0.28595,0.837187
4083.35,0.687931,0.684697,0.285515,0.8372
4083.42,0.689727,0.683842,0.285081,0.837214
4083.49,0.691498,0.682935,0.284647,0.837227
4083.57,0.693231,0.682,0.284215,0.837241
4083.64,0.694915,0.681079,0.283784,0.837255
4083.72,0.696537,0.680203,0.283353,0.83727
4083.79,0.698086,0.679413,0.282924,0.837284
4083.87,0.699551,0.678726,0.282496,0.837298
4083.94,0.700918,0.678112,0.282068,0.837313
4084.01,0.702174,0.677528,0.281688,0.837328
