Wavelength,Spectra,Best_Fitting_Model,Non_parm_Extinction_Curve,Non_param_Adjusted_Continuum
4050.07,0.554338,0.256354,0.0,0.876898
4050.15,0.555278,0.262147,0.0,0.876738
4050.22,0.556221,0.268172,0.0,0.876577
4050.29,0.55717,0.274142,0.0,0.876417
4050.37,0.558118,0.279785,0.0,0.876257
4050.44,0.559063,0.285081,0.0,0.876096
4050.52,0.56,0.290232,0.0,0.875936
4050.59,0.560927,0.29554,0.0,0.875775
4050.66,0.56184,0.301219,0.0,0.875615
4050.74,0.562738,0.307234,0.0,0.875455
4050.81,0.563617,0.313351,0.0,0.875294
4050.88,0.564474,0.319368,0.0,0.875134
4050.96,0.565305,0.325169,0.0,0.874974
4051.03,0.56611,0.330709,0.0,0.874813
4051.1,0.566883,0.335952,0.0,0.874653
4051.18,0.567623,0.340976,0.0,0.874493
4051.25,0.568328,0.34611,0.0,0.874332
4051.33,0.568992,0.351778,0.0,0.874172
4051.4,0.569616,0.358235,0.0,0.874012
4051.47,0.570194,0.36514,0.0,0.873852
4051.55,0.570725,0.371443,0.0,0.873691
4051.62,0.571205,0.376136,0.0,0.873531
4051.69,0.571632,0.379243,0.0,0.873371
4051.77,0.572003,0.381831,0.0,0.873211
4051.84,0.572316,0.386326,0.0,0.873051
4051.91,0.572572,0.401955,1.88951,0.87289
4051.99,0.572772,0.406144,1.89032,0.87273
4052.06,0.572915,0.408474,1.89113,0.87257
4052.14,0.573004,0.41116,1.89194,0.87241
4052.21,0.573038,0.4152,1.89274,0.87225
4052.28,0.573019,0.420652,1.89355,0.87209
4052.36,0.572947,0.426572,1.89436,0.87193
4052.43,0.572823,0.431945,1.89517,0.87177
4052.5,0.572647,0.436467,1.89598,0.87161
4052.58,0.572421,0.440386,1.89679,0.87145
4052.65,0.572145,0.444114,1.89766,0.87129
4052.73,0.57182,0.447936,1.89855,0.87113
4052.8,0.571448,0.451968,1.89944,0.87097
4052.87,0.571032,0.456179,1.90072,0.87081
4052.95,0.57058,0.460483,1.90202,0.870651
4053.02,0.570103,0.464761,1.90331,0.870491
4053.09,0.56961,0.468932,1.90461,0.870331
4053.17,0.569111,0.472968,1.90591,0.870171
4053.24,0.568614,0.47686,1.90721,0.870012
4053.31,0.568129,0.480619,1.90851,0.869852
4053.39,0.567665,0.484296,1.90981,0.869692
4053.46,0.567231,0.487947,1.91111,0.869533
4053.54,0.566837,0.491521,1.91242,0.869373
4053.61,0.566493,0.49499,1.91372,0.869214
4053.68,0.566207,0.498382,1.91501,0.869054
4053.76,0.565989,0.501746,1.9163,0.868895
4053.83,0.565846,0.505021,1.91744,0.868735
4053.9,0.565776,0.508139,1.91837,0.868576
4053.98,0.565765,0.511078,1.9193,0.868417
4054.05,0.565797,0.513887,1.92023,0.868257
4054.13,0.565859,0.516605,1.92117,0.868098
4054.2,0.565935,0.519313,1.9221,0.867939
4054.27,0.566012,0.522041,1.92304,0.86778
4054.35,0.566075,0.524745,1.92397,0.867621
4054.42,0.566109,0.52733,1.92491,0.867462
4054.49,0.5661,0.52975,1.92585,0.867303
4054.57,0.566034,0.531998,1.92679,0.867144
4054.64,0.565896,0.534042,1.92773,0.866985
4054.72,0.565672,0.535942,1.92867,0.866826
4054.79,0.565346,0.537813,1.92961,0.866667
4054.86,0.564905,0.539723,1.93111,0.866508
4054.94,0.564356,0.541652,1.93271,0.866349
4055.01,0.563711,0.543509,1.93433,0.866191
4055.08,0.56298,0.545136,1.93597,0.866032
4055.16,0.562179,0.546435,1.93761,0.865874
4055.23,0.56132,0.547478,1.93925,0.865715
4055.31,0.560415,0.54846,1.9409,0.865557
4055.38,0.559479,0.549544,1.94255,0.865398
4055.45,0.558523,0.550781,1.9442,0.86524
4055.53,0.557562,0.552169,1.94585,0.865082
4055.6,0.556606,0.553617,1.94751,0.864923
4055.67,0.555671,0.555005,1.94916,0.864765
4055.75,0.554768,0.556293,1.95082,0.864607
4055.82,0.553913,0.557467,1.95249,0.864449
4055.9,0.553115,0.558512,1.95419,0.864291
4055.97,0.552373,0.559399,1.95588,0.864133
4056.04,0.551687,0.56017,1.95758,0.863975
4056.12,0.551056,0.56088,1.95929,0.863817
4056.19,0.550476,0.561578,1.96099,0.86366
4056.26,0.549945,0.562297,1.9627,0.863502
4056.34,0.549461,0.563046,1.96441,0.863344
4056.41,0.549021,0.563773,1.96613,0.863187
4056.49,0.548624,0.564378,1.96784,0.863029
4056.56,0.548266,0.5648,1.96956,0.862872
4056.63,0.547946,0.565112,1.97128,0.862715
4056.71,0.547661,0.565393,1.97301,0.862557
4056.78,0.547408,0.565685,1.97473,0.8624
4056.85,0.547187,0.566056,1.97616,0.862243
4056.93,0.546993,0.566568,1.97748,0.862086
4057.0,0.546825,0.567133,1.97881,0.861929
4057.08,0.54668,0.567618,1.97999,0.861772
4057.15,0.546554,0.567996,1.98117,0.861615
4057.22,0.546445,0.568313,1.98236,0.861458
4057.3,0.546351,0.568576,1.98355,0.861302
4057.37,0.546267,0.568778,1.98474,0.861145
4057.44,0.546193,0.568981,1.98593,0.860988
4057.52,0.546123,0.569242,1.98712,0.860832
4057.59,0.546057,0.569519,1.98831,0.860676
4057.67,0.545991,0.56975,1.9895,0.860519
4057.74,0.545922,0.569931,1.99069,0.860363
4057.81,0.545847,0.570088,1.99189,0.860207
4057.89,0.545763,0.570233,1.99307,0.860051
4057.96,0.545669,0.570386,1.99425,0.859895
4058.03,0.545562,0.570556,1.99544,0.859739
4058.11,0.545441,0.570713,1.99661,0.859583
4058.18,0.545303,0.57082,1.99779,0.859427
4058.26,0.545147,0.570901,1.99897,0.859272
4058.33,0.544972,0.570993,2.00015,0.859116
4058.4,0.544775,0.571083,2.00134,0.858961
4058.48,0.544556,0.571156,2.00252,0.858805
4058.55,0.544311,0.571212,2.00371,0.85865
4058.62,0.54404,0.571232,2.00489,0.858495
4058.7,0.543741,0.571186,2.00608,0.85834
4058.77,0.543412,0.571079,2.00727,0.858185
4058.85,0.54305,0.570928,2.00852,0.85803
4058.92,0.542655,0.570721,2.00982,0.857875
4058.99,0.542229,0.570474,2.01112,0.85772
4059.07,0.541773,0.57022,2.0125,0.857566
4059.14,0.541291,0.569983,2.0139,0.857411
4059.21,0.540789,0.569769,2.0153,0.857256
4059.29,0.540269,0.569601,2.0167,0.857102
4059.36,0.539737,0.56948,2.0181,0.856948
4059.44,0.539196,0.569366,2.0195,0.856794
4059.51,0.53865,0.569213,2.0209,0.85664
4059.58,0.538103,0.568994,2.02231,0.856486
4059.66,0.53756,0.568715,2.02372,0.856332
4059.73,0.537024,0.568383,2.02512,0.856178
4059.81,0.5365,0.568035,2.02652,0.856024
4059.88,0.535991,0.567717,2.02774,0.855871
4059.95,0.535501,0.567473,2.02896,0.855717
4060.03,0.535032,0.567274,2.03009,0.855564
4060.1,0.534584,0.567085,2.03104,0.855411
4060.17,0.534156,0.56686,2.032,0.855258
4060.25,0.533748,0.566538,2.03296,0.855104
4060.32,0.533358,0.566058,2.03392,0.854952
4060.4,0.532986,0.565467,2.03488,0.854799
4060.47,0.532631,0.564872,2.03583,0.854646
4060.54,0.532293,0.564354,2.0368,0.854493
4060.62,0.531972,0.563938,2.03776,0.854341
4060.69,0.531665,0.563617,2.03872,0.854189
4060.77,0.531374,0.563326,2.03968,0.854036
4060.84,0.531097,0.562951,2.04078,0.853884
4060.91,0.530833,0.562443,2.042,0.853732
4060.99,0.530582,0.561822,2.04323,0.85358
4061.06,0.530345,0.561138,2.04494,0.853428
4061.13,0.530122,0.560417,2.04675,0.853277
4061.21,0.529914,0.559727,2.04857,0.853125
4061.28,0.529723,0.559093,2.05039,0.852974
4061.36,0.529548,0.558481,2.05221,0.852822
4061.43,0.529392,0.557853,2.05403,0.852671
4061.5,0.529256,0.557209,2.05586,0.85252
4061.58,0.529139,0.556553,2.05769,0.852369
4061.65,0.529044,0.555898,2.05952,0.852218
4061.73,0.52897,0.555289,2.06135,0.852067
4061.8,0.528921,0.554735,2.06319,0.851917
4061.87,0.528895,0.554202,2.06436,0.851766
4061.95,0.528894,0.553673,2.06552,0.851616
4062.02,0.528919,0.553155,2.06591,0.851465
4062.09,0.528968,0.552643,2.06427,0.851315
4062.17,0.52904,0.552124,2.06264,0.851165
4062.24,0.529132,0.55163,2.06101,0.851015
4062.32,0.52924,0.55119,2.05937,0.850866
4062.39,0.529364,0.550819,2.05775,0.850716
4062.46,0.529501,0.550535,2.05612,0.850567
4062.54,0.529648,0.550359,2.05449,0.850417
4062.61,0.529803,0.550247,2.05287,0.850268
4062.69,0.529963,0.550134,2.05125,0.850119
4062.76,0.530128,0.549986,2.04963,0.84997
4062.83,0.530293,0.549795,2.04809,0.849821
4062.91,0.530457,0.549545,2.04664,0.849672
4062.98,0.530617,0.549248,2.04519,0.849524
4063.05,0.530771,0.548971,2.04515,0.849375
4063.13,0.530917,0.548748,2.04561,0.849227
4063.2,0.531054,0.548563,2.04607,0.849079
4063.28,0.53118,0.548378,2.04653,0.848931
4063.35,0.531293,0.54818,2.04699,0.848783
4063.42,0.531391,0.547975,2.04745,0.848635
4063.5,0.531472,0.547856,2.0479,0.848488
4063.57,0.531535,0.548099,2.04836,0.84834
4063.65,0.531578,0.547715,2.04882,0.848193
4063.72,0.531599,0.547413,2.04928,0.848046
4063.79,0.531597,0.547191,2.04974,0.847899
4063.87,0.53157,0.547002,2.0502,0.847752
4063.94,0.531515,0.546775,2.05066,0.847605
4064.01,0.531431,0.546494,2.05112,0.847459
4064.09,0.531318,0.546139,2.05158,0.847312
4064.16,0.531179,0.545715,2.05203,0.847166
4064.24,0.531018,0.545294,2.05249,0.84702
4064.31,0.530837,0.544945,2.05295,0.846874
4064.38,0.530641,0.544676,2.05341,0.846728
4064.46,0.530434,0.544463,2.05387,0.846582
4064.53,0.530218,0.544312,2.05432,0.846437
4064.61,0.529999,0.544186,2.05478,0.846292
4064.68,0.529779,0.544047,2.05524,0.846146
4064.75,0.529562,0.543902,2.0557,0.846001
4064.83,0.529351,0.543792,2.05616,0.845856
4064.9,0.529151,0.543727,2.05662,0.845712
4064.98,0.528966,0.54371,2.05707,0.845567
4065.05,0.528798,0.543738,2.05728,0.845422
4065.12,0.528651,0.543784,2.05736,0.845278
4065.2,0.528526,0.543827,2.05743,0.845134
4065.27,0.528423,0.543877,2.05745,0.84499
4065.35,0.528345,0.543978,2.05746,0.844846
4065.42,0.528291,0.544167,2.05747,0.844703
4065.49,0.528263,0.544492,2.05748,0.844559
4065.57,0.528263,0.54496,2.05749,0.844416
4065.64,0.528291,0.545497,2.05751,0.844273
4065.71,0.528347,0.545991,2.05752,0.84413
4065.79,0.528434,0.54639,2.05753,0.843987
4065.86,0.528552,0.546725,2.05754,0.843844
4065.94,0.528702,0.54704,2.05755,0.843702
4066.01,0.528886,0.547401,2.05742,0.843559
4066.08,0.529104,0.547885,2.05645,0.843417
4066.16,0.529355,0.548535,2.05547,0.843275
4066.23,0.529639,0.549239,2.05434,0.843133
4066.31,0.529952,0.549884,2.05301,0.842992
4066.38,0.530294,0.550405,2.05169,0.84285
4066.45,0.530661,0.550811,2.05036,0.842709
4066.53,0.531052,0.55113,2.04903,0.842568
4066.6,0.531465,0.55143,2.04771,0.842427
4066.68,0.531897,0.551765,2.04638,0.842286
4066.75,0.532347,0.552144,2.04506,0.842145
4066.82,0.532812,0.552539,2.04374,0.842005
4066.9,0.533291,0.552895,2.04242,0.841865
4066.97,0.533781,0.553182,2.0411,0.841724
4067.05,0.534279,0.553441,2.03912,0.841585
4067.12,0.534786,0.553749,2.03673,0.841445
4067.19,0.535301,0.554137,2.03435,0.841305
4067.27,0.535827,0.554609,2.03136,0.841166
4067.34,0.536366,0.555166,2.02832,0.841027
4067.42,0.536921,0.555753,2.02528,0.840888
4067.49,0.537495,0.556317,2.02225,0.840749
4067.56,0.538091,0.556836,2.01923,0.84061
4067.64,0.538712,0.557337,2.01621,0.840472
4067.71,0.539361,0.557844,2.0132,0.840333
4067.79,0.540039,0.558379,2.0102,0.840195
4067.86,0.54075,0.558918,2.00721,0.840057
4067.93,0.541496,0.559406,2.00422,0.83992
4068.01,0.542284,0.559824,2.00125,0.839782
4068.08,0.543114,0.560179,1.99848,0.839645
4068.15,0.543983,0.560478,1.99572,0.839508
4068.23,0.544887,0.56078,1.99304,0.839371
4068.3,0.545817,0.561167,1.99049,0.839234
4068.38,0.54676,0.561655,1.98795,0.839097
4068.45,0.547702,0.562162,1.98541,0.838961
4068.52,0.548631,0.56262,1.98288,0.838825
4068.6,0.549535,0.562999,1.98035,0.838689
4068.67,0.550402,0.563288,1.97783,0.838553
4068.75,0.551221,0.563489,1.97531,0.838417
4068.82,0.551978,0.563658,1.9728,0.838282
4068.89,0.552663,0.563857,1.97029,0.838147
4068.97,0.553261,0.564086,1.96778,0.838012
4069.04,0.553757,0.56428,1.9658,0.837877
4069.12,0.554144,0.564402,1.96418,0.837742
4069.19,0.55442,0.564457,1.96257,0.837608
4069.26,0.554584,0.564473,1.96226,0.837474
4069.34,0.554649,0.564461,1.96213,0.83734
4069.41,0.554633,0.564435,1.962,0.837206
4069.49,0.554554,0.564357,1.96187,0.837072
4069.56,0.554425,0.564188,1.96174,0.836939
4069.63,0.554263,0.563965,1.96161,0.836806
4069.71,0.55408,0.56375,1.96148,0.836673
4069.78,0.553893,0.563592,1.96135,0.83654
4069.86,0.553716,0.563543,1.96122,0.836407
4069.93,0.553565,0.563677,1.96109,0.836275
4070.0,0.553458,0.563924,1.96095,0.836143
4070.08,0.553408,0.564165,1.96076,0.836011
4070.15,0.553427,0.564339,1.96057,0.835879
4070.23,0.553523,0.564436,1.96032,0.835748
4070.3,0.553698,0.564426,1.95995,0.835616
4070.37,0.55394,0.564324,1.95958,0.835485
4070.45,0.554235,0.564213,1.95921,0.835354
4070.52,0.554573,0.564132,1.95885,0.835224
4070.6,0.554943,0.564066,1.95848,0.835093
4070.67,0.555336,0.563992,1.95811,0.834963
4070.74,0.555741,0.563915,1.95774,0.834833
4070.82,0.556147,0.563834,1.95737,0.834703
4070.89,0.556545,0.563764,1.95701,0.834574
4070.97,0.556922,0.563719,1.95664,0.834444
4071.04,0.557269,0.563704,1.95635,0.834315
4071.11,0.557574,0.563716,1.95611,0.834186
4071.19,0.55783,0.563725,1.95588,0.834058
4071.26,0.558028,0.563685,1.95645,0.833929
4071.34,0.55817,0.563556,1.95715,0.833801
4071.41,0.55826,0.563353,1.95786,0.833673
4071.48,0.558303,0.56309,1.95856,0.833545
4071.56,0.558302,0.562774,1.95927,0.833417
4071.63,0.558262,0.562445,1.95997,0.83329
4071.71,0.558186,0.562146,1.96068,0.833163
4071.78,0.558078,0.561888,1.96139,0.833036
4071.85,0.557942,0.561644,1.9621,0.832909
4071.93,0.557782,0.561415,1.9628,0.832783
4072.0,0.557601,0.561179,1.96351,0.832657
4072.08,0.557405,0.560915,1.96422,0.832531
4072.15,0.557195,0.560623,1.96493,0.832405
4072.23,0.556978,0.560327,1.96577,0.832279
4072.3,0.556754,0.560048,1.96687,0.832154
4072.37,0.556526,0.55979,1.96797,0.832029
4072.45,0.556293,0.559529,1.96907,0.831904
4072.52,0.556057,0.559194,1.97017,0.83178
4072.6,0.555818,0.558779,1.97127,0.831655
4072.67,0.555577,0.558331,1.97238,0.831531
4072.74,0.555336,0.557881,1.97348,0.831407
4072.82,0.555094,0.557458,1.97459,0.831284
4072.89,0.554852,0.557121,1.97569,0.83116
4072.97,0.554611,0.556899,1.9768,0.831037
4073.04,0.554373,0.556711,1.97791,0.830914
4073.11,0.554137,0.556493,1.97901,0.830792
4073.19,0.553904,0.556232,1.98012,0.830669
4073.26,0.553676,0.55593,1.98078,0.830547
4073.34,0.553453,0.555602,1.98135,0.830425
4073.41,0.553235,0.555278,1.98191,0.830303
4073.48,0.553022,0.554969,1.98241,0.830182
4073.56,0.552815,0.554654,1.9829,0.830061
4073.63,0.552614,0.554312,1.9834,0.82994
4073.71,0.552419,0.553913,1.98389,0.829819
4073.78,0.552231,0.553441,1.98439,0.829699
4073.85,0.55205,0.552928,1.98488,0.829579
4073.93,0.551876,0.552412,1.98538,0.829459
4074.0,0.551711,0.551916,1.98587,0.829339
4074.08,0.551552,0.551458,1.98637,0.829219
4074.15,0.551403,0.551063,1.98686,0.8291
4074.22,0.551262,0.550705,1.98728,0.828981
4074.3,0.55113,0.550338,1.98753,0.828863
4074.37,0.551006,0.549926,1.98779,0.828744
4074.45,0.550887,0.549461,1.98799,0.828626
4074.52,0.550772,0.548914,1.98816,0.828508
4074.6,0.550659,0.548295,1.98833,0.82839
4074.67,0.550547,0.54766,1.9885,0.828273
4074.74,0.550432,0.547071,1.98867,0.828156
4074.82,0.550313,0.546524,1.98884,0.828039
4074.89,0.550188,0.546027,1.98902,0.827922
4074.97,0.550055,0.54559,1.98919,0.827806
4075.04,0.549912,0.545161,1.98936,0.82769
4075.11,0.549758,0.544689,1.98953,0.827574
4075.19,0.54959,0.544192,1.9897,0.827458
4075.26,0.549404,0.5437,1.99016,0.827343
4075.34,0.549203,0.543197,1.99068,0.827228
4075.41,0.54899,0.542716,1.99122,0.827113
4075.48,0.548768,0.542266,1.99195,0.826999
4075.56,0.548544,0.541811,1.99268,0.826885
4075.63,0.548325,0.541332,1.99341,0.826771
4075.71,0.548116,0.540875,1.99414,0.826657
4075.78,0.547923,0.540458,1.99487,0.826543
4075.85,0.547753,0.540088,1.9956,0.82643
4075.93,0.54761,0.539846,1.99633,0.826317
4076.0,0.547501,0.539729,1.99706,0.826205
4076.08,0.547431,0.539657,1.99779,0.826092
4076.15,0.547408,0.539538,1.99852,0.82598
4076.23,0.547438,0.539362,1.99903,0.825868
4076.3,0.547526,0.539079,1.99912,0.825757
4076.37,0.547671,0.538693,1.9992,0.825646
4076.45,0.547873,0.538327,1.99885,0.825535
4076.52,0.548126,0.538116,1.99825,0.825424
4076.6,0.548422,0.538073,1.99765,0.825314
4076.67,0.548751,0.538171,1.99706,0.825203
4076.74,0.549106,0.538405,1.99646,0.825094
4076.82,0.54948,0.538697,1.99587,0.824984
4076.89,0.549866,0.53895,1.99527,0.824875
4076.97,0.550256,0.539116,1.99468,0.824766
4077.04,0.550643,0.539239,1.99409,0.824657
4077.11,0.55102,0.53931,1.99349,0.824548
4077.19,0.551378,0.539356,1.9929,0.82444
4077.26,0.551708,0.539467,1.99251,0.824332
4077.34,0.552006,0.539731,1.99215,0.824225
4077.41,0.552271,0.540098,1.99187,0.824118
4077.49,0.552501,0.540496,1.99194,0.824011
4077.56,0.552705,0.540889,1.99202,0.823904
4077.63,0.55289,0.541224,1.9921,0.823797
4077.71,0.553064,0.541459,1.99217,0.823691
4077.78,0.553234,0.541639,1.99225,0.823585
4077.86,0.553406,0.541893,1.99233,0.82348
4077.93,0.553587,0.542299,1.99241,0.823374
4078.0,0.553783,0.542822,1.99248,0.823269
4078.08,0.554002,0.543381,1.99256,0.823165
4078.15,0.554251,0.543906,1.99264,0.82306
4078.23,0.554537,0.54437,1.9926,0.822956
4078.3,0.554866,0.544781,1.99234,0.822852
4078.38,0.555244,0.545182,1.99208,0.822749
4078.45,0.555675,0.545622,1.99106,0.822646
4078.52,0.556155,0.546129,1.98965,0.822543
4078.6,0.556681,0.546677,1.98824,0.82244
4078.67,0.557245,0.547231,1.98683,0.822338
4078.75,0.557842,0.547763,1.98542,0.822236
4078.82,0.558469,0.54828,1.98402,0.822134
4078.89,0.559121,0.548793,1.98262,0.822033
4078.97,0.559792,0.549319,1.98121,0.821932
4079.04,0.560477,0.549861,1.97981,0.821831
4079.12,0.561172,0.550399,1.97841,0.82173
4079.19,0.561871,0.550934,1.97702,0.82163
4079.26,0.56257,0.551486,1.97558,0.82153
4079.34,0.563263,0.552083,1.97413,0.821431
4079.41,0.563947,0.552718,1.9726,0.821332
4079.49,0.564619,0.553392,1.97068,0.821233
4079.56,0.565282,0.554104,1.96875,0.821134
4079.64,0.565937,0.554836,1.96683,0.821036
4079.71,0.566588,0.555581,1.96491,0.820938
4079.78,0.567237,0.556334,1.963,0.82084
4079.86,0.567886,0.55709,1.96108,0.820742
4079.93,0.568539,0.557831,1.95917,0.820645
4080.01,0.569197,0.558579,1.95727,0.820549
4080.08,0.569863,0.559327,1.95536,0.820452
4080.16,0.570539,0.560051,1.95346,0.820356
4080.23,0.571229,0.56077,1.95156,0.82026
4080.3,0.571934,0.561526,1.94966,0.820165
4080.38,0.572657,0.562322,1.94777,0.820069
4080.45,0.573401,0.563166,1.94561,0.819975
4080.53,0.574165,0.56412,1.94333,0.81988
4080.6,0.574947,0.565169,1.94105,0.819786
4080.67,0.575747,0.566219,1.93876,0.819692
4080.75,0.576561,0.567185,1.93647,0.819598
4080.82,0.577389,0.56805,1.93419,0.819505
4080.9,0.578228,0.568771,1.93192,0.819412
4080.97,0.579076,0.56938,1.92964,0.819319
4081.05,0.579931,0.570023,1.92737,0.819227
4081.12,0.580792,0.570854,1.92511,0.819135
4081.19,0.581657,0.571853,1.92284,0.819044
4081.27,0.582524,0.572907,1.92059,0.818952
4081.34,0.583391,0.573915,1.91833,0.818861
4081.42,0.584256,0.574823,1.91611,0.818771
4081.49,0.585118,0.575575,1.91401,0.81868
4081.56,0.585974,0.5762,1.91192,0.81859
4081.64,0.586823,0.576875,1.90984,0.818501
4081.71,0.587665,0.577757,1.90778,0.818411
4081.79,0.588497,0.578818,1.90573,0.818322
4081.86,0.589318,0.579936,1.90368,0.818234
4081.94,0.590126,0.581067,1.90163,0.818145
4082.01,0.590921,0.582136,1.89959,0.818057
4082.08,0.591701,0.583068,1.89755,0.81797
4082.16,0.592464,0.583845,1.89551,0.817882
4082.23,0.593209,0.584556,1.89348,0.817795
4082.31,0.593934,0.585204,1.89144,0.817709
4082.38,0.594639,0.585797,1.88942,0.817622
4082.46,0.595321,0.5864,1.88789,0.817536
4082.53,0.595979,0.587097,1.88653,0.817451
4082.6,0.596615,0.587885,1.88519,0.817365
4082.68,0.597227,0.588752,1.88415,0.81728
4082.75,0.597817,0.589694,1.8831,0.817196
4082.83,0.598385,0.590624,1.88206,0.817112
4082.9,0.598932,0.591416,1.88102,0.817028
4082.98,0.599458,0.592038,1.87998,0.816944
4083.05,0.599964,0.592582,1.87894,0.816861
4083.12,0.60045,0.593113,1.8779,0.816778
4083.2,0.600917,0.593661,1.87687,0.816696
4083.27,0.601365,0.594276,1.87583,0.816613
4083.35,0.601795,0.594997,1.87479,0.816532
4083.42,0.602207,0.595741,1.87388,0.81645
4083.49,0.602602,0.596452,1.87329,0.816369
4083.57,0.602982,0.597128,1.8727,0.816288
4083.64,0.603351,0.597753,1.87233,0.816208
4083.72,0.603712,0.598299,1.87212,0.816128
4083.79,0.604072,0.598808,1.87191,0.816048
4083.87,0.604434,0.599318,1.8717,0.815969
4083.94,0.604804,0.599804,1.87149,0.81589
4084.01,0.605187,0.600257,1.87128,0.815811
4084.09,0.605587,0.600679,1.87107,0.815733
4084.16,0.606009,0.601081,1.87086,0.815655
4084.24,0.606457,0.60151,1.87065,0.815577
4084.31,0.606937,0.602061,1.87043,0.8155
4084.39,0.607455,0.602748,1.87022,0.815423
4084.46,0.608015,0.603513,1.86923,0.815346
4084.53,0.60862,0.60431,1.86805,0.81527
4084.61,0.609271,0.605097,1.8667,0.815195
4084.68,0.609968,0.605816,1.86408,0.815119
4084.76,0.610708,0.606448,1.86145,0.815044
4084.83,0.611484,0.607063,1.85884,0.814969
